;content of D:\data\result\mecham\???\20231225-89741\310-07.raw - (Diffrac Plus V4 file)
_FILEVERSION = 3
_SAMPLE
_+SAMPLE
_USER = Lab Manager
_GONIOMETER_CODE = 21
_STAGE_CODE = 7
; Goniometer : D8 theta/theta, stage : Chi drive
_SAMPLE_CHANGER_CODE = 0
_ATTACHMENTS_CODE = 0
_GONIOMETER_RADIUS = 280
_MONOCHROMATOR = 0
; Incident beam monochromator : None
_BETA_FILTER = N
_ANALYZER_CODE = 0
; Received beam analyzer : None
_DATEMEASURED = 25-Dec-2023 10:04:43
_RUNTIME = 11.19268
_WL_UNIT = A
_WL1 = 1.5406
_WL2 = 1.54439
_WL3 = 1.39222
_WLRATIO = 0.5
_ANODE = Cu
_V4_INF_USER = Lab Manager
_V4_INF_CREATOR = V5Converter
_V4_INF_CREATOR_VERSION = 4.4.16.0

; Data for range 1
_DRIVE = COUPLED
_STEPTIME = 57.6
_STEPSIZE = 0.019721
_STEPMODE = C
_START = 20
_THETA = 10
_2THETA = 20
_KHI = 0
_PHI = 0
_DETECTORSLIT = out
_AUX1 = 0
_TIMESTARTED = 0
_KV = 40
_MA = 40
_RANGE_WL = 1.5406
_3DPLANE = 0
_V4_PSD2THETA = 9999
_V4_PSDCHANNEL1 = 0
_V4_PSDAPERTURE = 2.839876
_V4_PSDTYPE = 5
_V4_PSDFIXED = 0
_V4_COUNTERS_MASK = 1
_V4_DRIVES_MASK = 0
_V4_ENCODERS_MASK = 0
_2THETACOUNTS = 1
; 2THETA	Cnt2_D1	
20.000000	153.000000	
20.019721	120.000000	
20.039443	155.000000	
20.059164	150.000000	
20.078885	147.000000	
20.098607	132.000000	
20.118328	130.000000	
20.138050	130.000000	
20.157771	107.000000	
20.177492	119.000000	
20.197214	117.000000	
20.216935	146.000000	
20.236656	145.000000	
20.256378	143.000000	
20.276099	142.000000	
20.295820	118.000000	
20.315542	137.000000	
20.335263	115.000000	
20.354985	144.000000	
20.374706	145.000000	
20.394427	150.000000	
20.414149	143.000000	
20.433870	154.000000	
20.453591	143.000000	
20.473313	134.000000	
20.493034	142.000000	
20.512755	142.000000	
20.532477	154.000000	
20.552198	122.000000	
20.571920	149.000000	
20.591641	145.000000	
20.611362	162.000000	
20.631084	133.000000	
20.650805	156.000000	
20.670526	144.000000	
20.690248	141.000000	
20.709969	152.000000	
20.729690	141.000000	
20.749412	121.000000	
20.769133	143.000000	
20.788855	135.000000	
20.808576	123.000000	
20.828297	160.000000	
20.848019	134.000000	
20.867740	140.000000	
20.887461	125.000000	
20.907183	134.000000	
20.926904	129.000000	
20.946625	142.000000	
20.966347	153.000000	
20.986068	139.000000	
21.005790	156.000000	
21.025511	145.000000	
21.045232	135.000000	
21.064954	143.000000	
21.084675	116.000000	
21.104396	129.000000	
21.124118	117.000000	
21.143839	131.000000	
21.163560	140.000000	
21.183282	132.000000	
21.203003	136.000000	
21.222725	134.000000	
21.242446	135.000000	
21.262167	140.000000	
21.281889	134.000000	
21.301610	144.000000	
21.321331	139.000000	
21.341053	130.000000	
21.360774	135.000000	
21.380495	162.000000	
21.400217	127.000000	
21.419938	142.000000	
21.439660	138.000000	
21.459381	147.000000	
21.479102	120.000000	
21.498824	140.000000	
21.518545	152.000000	
21.538266	152.000000	
21.557988	142.000000	
21.577709	136.000000	
21.597430	151.000000	
21.617152	138.000000	
21.636873	136.000000	
21.656595	127.000000	
21.676316	132.000000	
21.696037	129.000000	
21.715759	125.000000	
21.735480	134.000000	
21.755201	127.000000	
21.774923	141.000000	
21.794644	137.000000	
21.814365	158.000000	
21.834087	152.000000	
21.853808	144.000000	
21.873530	108.000000	
21.893251	141.000000	
21.912972	120.000000	
21.932694	128.000000	
21.952415	118.000000	
21.972136	127.000000	
21.991858	170.000000	
22.011579	128.000000	
22.031300	135.000000	
22.051022	153.000000	
22.070743	153.000000	
22.090465	123.000000	
22.110186	144.000000	
22.129907	144.000000	
22.149629	125.000000	
22.169350	149.000000	
22.189071	151.000000	
22.208793	121.000000	
22.228514	117.000000	
22.248235	111.000000	
22.267957	139.000000	
22.287678	133.000000	
22.307400	136.000000	
22.327121	132.000000	
22.346842	134.000000	
22.366564	121.000000	
22.386285	141.000000	
22.406006	125.000000	
22.425728	142.000000	
22.445449	145.000000	
22.465170	115.000000	
22.484892	141.000000	
22.504613	119.000000	
22.524335	139.000000	
22.544056	125.000000	
22.563777	137.000000	
22.583499	142.000000	
22.603220	152.000000	
22.622941	146.000000	
22.642663	130.000000	
22.662384	124.000000	
22.682105	152.000000	
22.701827	136.000000	
22.721548	120.000000	
22.741270	138.000000	
22.760991	135.000000	
22.780712	119.000000	
22.800434	118.000000	
22.820155	116.000000	
22.839876	141.000000	
22.859598	114.000000	
22.879319	128.000000	
22.899040	158.000000	
22.918762	134.000000	
22.938483	138.000000	
22.958205	134.000000	
22.977926	136.000000	
22.997647	163.000000	
23.017369	137.000000	
23.037090	125.000000	
23.056811	128.000000	
23.076533	144.000000	
23.096254	139.000000	
23.115975	134.000000	
23.135697	136.000000	
23.155418	142.000000	
23.175140	133.000000	
23.194861	133.000000	
23.214582	130.000000	
23.234304	125.000000	
23.254025	124.000000	
23.273746	132.000000	
23.293468	157.000000	
23.313189	118.000000	
23.332910	122.000000	
23.352632	123.000000	
23.372353	130.000000	
23.392075	148.000000	
23.411796	136.000000	
23.431517	146.000000	
23.451239	151.000000	
23.470960	130.000000	
23.490681	139.000000	
23.510403	118.000000	
23.530124	140.000000	
23.549845	120.000000	
23.569567	124.000000	
23.589288	149.000000	
23.609010	140.000000	
23.628731	143.000000	
23.648452	132.000000	
23.668174	129.000000	
23.687895	131.000000	
23.707616	118.000000	
23.727338	130.000000	
23.747059	125.000000	
23.766780	136.000000	
23.786502	167.000000	
23.806223	141.000000	
23.825945	172.000000	
23.845666	152.000000	
23.865387	180.000000	
23.885109	197.000000	
23.904830	186.000000	
23.924551	213.000000	
23.944273	220.000000	
23.963994	242.000000	
23.983715	255.000000	
24.003437	238.000000	
24.023158	240.000000	
24.042880	276.000000	
24.062601	275.000000	
24.082322	273.000000	
24.102044	298.000000	
24.121765	267.000000	
24.141486	250.000000	
24.161208	223.000000	
24.180929	200.000000	
24.200650	200.000000	
24.220372	164.000000	
24.240093	149.000000	
24.259815	160.000000	
24.279536	161.000000	
24.299257	152.000000	
24.318979	128.000000	
24.338700	146.000000	
24.358421	139.000000	
24.378143	142.000000	
24.397864	133.000000	
24.417586	120.000000	
24.437307	140.000000	
24.457028	150.000000	
24.476750	138.000000	
24.496471	118.000000	
24.516192	161.000000	
24.535914	152.000000	
24.555635	126.000000	
24.575356	135.000000	
24.595078	124.000000	
24.614799	121.000000	
24.634521	137.000000	
24.654242	136.000000	
24.673963	125.000000	
24.693685	140.000000	
24.713406	163.000000	
24.733127	140.000000	
24.752849	138.000000	
24.772570	126.000000	
24.792291	146.000000	
24.812013	134.000000	
24.831734	127.000000	
24.851456	110.000000	
24.871177	147.000000	
24.890898	138.000000	
24.910620	139.000000	
24.930341	126.000000	
24.950062	150.000000	
24.969784	142.000000	
24.989505	133.000000	
25.009226	133.000000	
25.028948	145.000000	
25.048669	144.000000	
25.068391	115.000000	
25.088112	128.000000	
25.107833	123.000000	
25.127555	147.000000	
25.147276	133.000000	
25.166997	145.000000	
25.186719	134.000000	
25.206440	133.000000	
25.226161	134.000000	
25.245883	127.000000	
25.265604	146.000000	
25.285326	134.000000	
25.305047	120.000000	
25.324768	119.000000	
25.344490	145.000000	
25.364211	139.000000	
25.383932	124.000000	
25.403654	107.000000	
25.423375	137.000000	
25.443096	123.000000	
25.462818	121.000000	
25.482539	119.000000	
25.502261	147.000000	
25.521982	128.000000	
25.541703	122.000000	
25.561425	119.000000	
25.581146	130.000000	
25.600867	124.000000	
25.620589	139.000000	
25.640310	130.000000	
25.660031	120.000000	
25.679753	130.000000	
25.699474	144.000000	
25.719196	125.000000	
25.738917	139.000000	
25.758638	119.000000	
25.778360	131.000000	
25.798081	131.000000	
25.817802	123.000000	
25.837524	121.000000	
25.857245	118.000000	
25.876966	123.000000	
25.896688	132.000000	
25.916409	122.000000	
25.936131	125.000000	
25.955852	110.000000	
25.975573	140.000000	
25.995295	118.000000	
26.015016	128.000000	
26.034737	120.000000	
26.054459	133.000000	
26.074180	125.000000	
26.093901	116.000000	
26.113623	117.000000	
26.133344	122.000000	
26.153066	110.000000	
26.172787	112.000000	
26.192508	117.000000	
26.212230	114.000000	
26.231951	130.000000	
26.251672	142.000000	
26.271394	109.000000	
26.291115	115.000000	
26.310836	143.000000	
26.330558	129.000000	
26.350279	141.000000	
26.370001	136.000000	
26.389722	139.000000	
26.409443	117.000000	
26.429165	124.000000	
26.448886	133.000000	
26.468607	127.000000	
26.488329	128.000000	
26.508050	147.000000	
26.527771	114.000000	
26.547493	132.000000	
26.567214	113.000000	
26.586936	144.000000	
26.606657	129.000000	
26.626378	124.000000	
26.646100	136.000000	
26.665821	131.000000	
26.685542	107.000000	
26.705264	131.000000	
26.724985	128.000000	
26.744706	124.000000	
26.764428	152.000000	
26.784149	135.000000	
26.803871	121.000000	
26.823592	113.000000	
26.843313	108.000000	
26.863035	97.000000	
26.882756	119.000000	
26.902477	126.000000	
26.922199	137.000000	
26.941920	123.000000	
26.961641	108.000000	
26.981363	132.000000	
27.001084	127.000000	
27.020806	137.000000	
27.040527	114.000000	
27.060248	136.000000	
27.079970	122.000000	
27.099691	127.000000	
27.119412	132.000000	
27.139134	107.000000	
27.158855	120.000000	
27.178576	121.000000	
27.198298	115.000000	
27.218019	125.000000	
27.237741	128.000000	
27.257462	104.000000	
27.277183	131.000000	
27.296905	117.000000	
27.316626	121.000000	
27.336347	154.000000	
27.356069	132.000000	
27.375790	103.000000	
27.395511	132.000000	
27.415233	137.000000	
27.434954	178.000000	
27.454676	122.000000	
27.474397	136.000000	
27.494118	125.000000	
27.513840	130.000000	
27.533561	114.000000	
27.553282	127.000000	
27.573004	129.000000	
27.592725	94.000000	
27.612446	138.000000	
27.632168	119.000000	
27.651889	129.000000	
27.671611	111.000000	
27.691332	130.000000	
27.711053	133.000000	
27.730775	136.000000	
27.750496	118.000000	
27.770217	140.000000	
27.789939	138.000000	
27.809660	135.000000	
27.829381	111.000000	
27.849103	110.000000	
27.868824	116.000000	
27.888546	132.000000	
27.908267	128.000000	
27.927988	135.000000	
27.947710	131.000000	
27.967431	136.000000	
27.987152	118.000000	
28.006874	132.000000	
28.026595	134.000000	
28.046316	144.000000	
28.066038	156.000000	
28.085759	148.000000	
28.105481	129.000000	
28.125202	155.000000	
28.144923	126.000000	
28.164645	123.000000	
28.184366	137.000000	
28.204087	131.000000	
28.223809	131.000000	
28.243530	136.000000	
28.263251	129.000000	
28.282973	138.000000	
28.302694	132.000000	
28.322416	126.000000	
28.342137	138.000000	
28.361858	123.000000	
28.381580	118.000000	
28.401301	144.000000	
28.421022	133.000000	
28.440744	114.000000	
28.460465	121.000000	
28.480186	123.000000	
28.499908	117.000000	
28.519629	136.000000	
28.539351	133.000000	
28.559072	125.000000	
28.578793	140.000000	
28.598515	129.000000	
28.618236	139.000000	
28.637957	127.000000	
28.657679	134.000000	
28.677400	146.000000	
28.697121	146.000000	
28.716843	137.000000	
28.736564	115.000000	
28.756286	144.000000	
28.776007	110.000000	
28.795728	107.000000	
28.815450	136.000000	
28.835171	119.000000	
28.854892	155.000000	
28.874614	119.000000	
28.894335	104.000000	
28.914056	117.000000	
28.933778	118.000000	
28.953499	141.000000	
28.973221	128.000000	
28.992942	115.000000	
29.012663	150.000000	
29.032385	130.000000	
29.052106	126.000000	
29.071827	125.000000	
29.091549	111.000000	
29.111270	101.000000	
29.130991	123.000000	
29.150713	117.000000	
29.170434	131.000000	
29.190156	141.000000	
29.209877	132.000000	
29.229598	144.000000	
29.249320	127.000000	
29.269041	129.000000	
29.288762	119.000000	
29.308484	133.000000	
29.328205	147.000000	
29.347926	114.000000	
29.367648	122.000000	
29.387369	123.000000	
29.407091	119.000000	
29.426812	103.000000	
29.446533	131.000000	
29.466255	123.000000	
29.485976	125.000000	
29.505697	136.000000	
29.525419	125.000000	
29.545140	119.000000	
29.564861	126.000000	
29.584583	121.000000	
29.604304	127.000000	
29.624026	138.000000	
29.643747	116.000000	
29.663468	146.000000	
29.683190	144.000000	
29.702911	125.000000	
29.722632	138.000000	
29.742354	144.000000	
29.762075	143.000000	
29.781796	130.000000	
29.801518	106.000000	
29.821239	139.000000	
29.840961	143.000000	
29.860682	126.000000	
29.880403	163.000000	
29.900125	147.000000	
29.919846	163.000000	
29.939567	146.000000	
29.959289	145.000000	
29.979010	165.000000	
29.998731	158.000000	
30.018453	197.000000	
30.038174	186.000000	
30.057896	196.000000	
30.077617	179.000000	
30.097338	217.000000	
30.117060	204.000000	
30.136781	193.000000	
30.156502	185.000000	
30.176224	199.000000	
30.195945	187.000000	
30.215666	163.000000	
30.235388	169.000000	
30.255109	142.000000	
30.274831	127.000000	
30.294552	134.000000	
30.314273	147.000000	
30.333995	130.000000	
30.353716	147.000000	
30.373437	124.000000	
30.393159	117.000000	
30.412880	130.000000	
30.432601	130.000000	
30.452323	116.000000	
30.472044	124.000000	
30.491766	122.000000	
30.511487	141.000000	
30.531208	146.000000	
30.550930	134.000000	
30.570651	116.000000	
30.590372	124.000000	
30.610094	114.000000	
30.629815	119.000000	
30.649536	129.000000	
30.669258	123.000000	
30.688979	139.000000	
30.708701	94.000000	
30.728422	121.000000	
30.748143	126.000000	
30.767865	139.000000	
30.787586	123.000000	
30.807307	128.000000	
30.827029	139.000000	
30.846750	116.000000	
30.866471	131.000000	
30.886193	126.000000	
30.905914	126.000000	
30.925636	132.000000	
30.945357	106.000000	
30.965078	134.000000	
30.984800	116.000000	
31.004521	120.000000	
31.024242	132.000000	
31.043964	131.000000	
31.063685	140.000000	
31.083406	123.000000	
31.103128	128.000000	
31.122849	123.000000	
31.142571	129.000000	
31.162292	139.000000	
31.182013	130.000000	
31.201735	127.000000	
31.221456	123.000000	
31.241177	143.000000	
31.260899	128.000000	
31.280620	127.000000	
31.300341	122.000000	
31.320063	147.000000	
31.339784	111.000000	
31.359506	137.000000	
31.379227	128.000000	
31.398948	111.000000	
31.418670	131.000000	
31.438391	130.000000	
31.458112	110.000000	
31.477834	110.000000	
31.497555	113.000000	
31.517276	153.000000	
31.536998	115.000000	
31.556719	129.000000	
31.576441	135.000000	
31.596162	142.000000	
31.615883	130.000000	
31.635605	124.000000	
31.655326	111.000000	
31.675047	129.000000	
31.694769	134.000000	
31.714490	133.000000	
31.734211	111.000000	
31.753933	132.000000	
31.773654	110.000000	
31.793376	133.000000	
31.813097	116.000000	
31.832818	115.000000	
31.852540	118.000000	
31.872261	128.000000	
31.891982	140.000000	
31.911704	133.000000	
31.931425	132.000000	
31.951146	135.000000	
31.970868	130.000000	
31.990589	125.000000	
32.010311	123.000000	
32.030032	136.000000	
32.049753	135.000000	
32.069475	121.000000	
32.089196	131.000000	
32.108917	119.000000	
32.128639	126.000000	
32.148360	138.000000	
32.168081	128.000000	
32.187803	131.000000	
32.207524	134.000000	
32.227246	139.000000	
32.246967	123.000000	
32.266688	134.000000	
32.286410	121.000000	
32.306131	120.000000	
32.325852	106.000000	
32.345574	132.000000	
32.365295	114.000000	
32.385016	109.000000	
32.404738	117.000000	
32.424459	120.000000	
32.444181	116.000000	
32.463902	140.000000	
32.483623	145.000000	
32.503345	123.000000	
32.523066	131.000000	
32.542787	106.000000	
32.562509	135.000000	
32.582230	134.000000	
32.601951	118.000000	
32.621673	136.000000	
32.641394	133.000000	
32.661116	129.000000	
32.680837	142.000000	
32.700558	135.000000	
32.720280	139.000000	
32.740001	138.000000	
32.759722	117.000000	
32.779444	159.000000	
32.799165	144.000000	
32.818886	180.000000	
32.838608	196.000000	
32.858329	280.000000	
32.878051	302.000000	
32.897772	324.000000	
32.917493	363.000000	
32.937215	379.000000	
32.956936	391.000000	
32.976657	481.000000	
32.996379	514.000000	
33.016100	505.000000	
33.035821	578.000000	
33.055543	640.000000	
33.075264	696.000000	
33.094986	688.000000	
33.114707	658.000000	
33.134428	633.000000	
33.154150	560.000000	
33.173871	498.000000	
33.193592	394.000000	
33.213314	342.000000	
33.233035	277.000000	
33.252757	243.000000	
33.272478	186.000000	
33.292199	169.000000	
33.311921	167.000000	
33.331642	144.000000	
33.351363	139.000000	
33.371085	150.000000	
33.390806	163.000000	
33.410527	135.000000	
33.430249	123.000000	
33.449970	143.000000	
33.469692	135.000000	
33.489413	130.000000	
33.509134	125.000000	
33.528856	143.000000	
33.548577	121.000000	
33.568298	121.000000	
33.588020	133.000000	
33.607741	114.000000	
33.627462	143.000000	
33.647184	135.000000	
33.666905	132.000000	
33.686627	138.000000	
33.706348	137.000000	
33.726069	123.000000	
33.745791	107.000000	
33.765512	136.000000	
33.785233	109.000000	
33.804955	121.000000	
33.824676	141.000000	
33.844397	108.000000	
33.864119	132.000000	
33.883840	119.000000	
33.903562	123.000000	
33.923283	146.000000	
33.943004	133.000000	
33.962726	141.000000	
33.982447	146.000000	
34.002168	135.000000	
34.021890	120.000000	
34.041611	137.000000	
34.061332	143.000000	
34.081054	121.000000	
34.100775	130.000000	
34.120497	143.000000	
34.140218	97.000000	
34.159939	124.000000	
34.179661	141.000000	
34.199382	130.000000	
34.219103	134.000000	
34.238825	116.000000	
34.258546	113.000000	
34.278267	123.000000	
34.297989	137.000000	
34.317710	151.000000	
34.337432	100.000000	
34.357153	141.000000	
34.376874	105.000000	
34.396596	142.000000	
34.416317	138.000000	
34.436038	116.000000	
34.455760	122.000000	
34.475481	129.000000	
34.495202	132.000000	
34.514924	116.000000	
34.534645	150.000000	
34.554367	123.000000	
34.574088	124.000000	
34.593809	126.000000	
34.613531	125.000000	
34.633252	148.000000	
34.652973	141.000000	
34.672695	126.000000	
34.692416	144.000000	
34.712137	132.000000	
34.731859	123.000000	
34.751580	110.000000	
34.771302	127.000000	
34.791023	124.000000	
34.810744	130.000000	
34.830466	110.000000	
34.850187	121.000000	
34.869908	113.000000	
34.889630	136.000000	
34.909351	155.000000	
34.929072	141.000000	
34.948794	138.000000	
34.968515	133.000000	
34.988237	126.000000	
35.007958	133.000000	
35.027679	145.000000	
35.047401	146.000000	
35.067122	149.000000	
35.086843	146.000000	
35.106565	123.000000	
35.126286	136.000000	
35.146007	183.000000	
35.165729	166.000000	
35.185450	176.000000	
35.205172	205.000000	
35.224893	231.000000	
35.244614	222.000000	
35.264336	306.000000	
35.284057	334.000000	
35.303778	359.000000	
35.323500	452.000000	
35.343221	520.000000	
35.362942	553.000000	
35.382664	630.000000	
35.402385	665.000000	
35.422107	744.000000	
35.441828	803.000000	
35.461549	870.000000	
35.481271	940.000000	
35.500992	850.000000	
35.520713	895.000000	
35.540435	901.000000	
35.560156	894.000000	
35.579877	780.000000	
35.599599	690.000000	
35.619320	639.000000	
35.639042	519.000000	
35.658763	512.000000	
35.678484	368.000000	
35.698206	329.000000	
35.717927	285.000000	
35.737648	228.000000	
35.757370	237.000000	
35.777091	183.000000	
35.796812	146.000000	
35.816534	167.000000	
35.836255	166.000000	
35.855977	163.000000	
35.875698	158.000000	
35.895419	160.000000	
35.915141	158.000000	
35.934862	143.000000	
35.954583	164.000000	
35.974305	146.000000	
35.994026	145.000000	
36.013747	157.000000	
36.033469	141.000000	
36.053190	144.000000	
36.072912	150.000000	
36.092633	156.000000	
36.112354	146.000000	
36.132076	163.000000	
36.151797	149.000000	
36.171518	147.000000	
36.191240	172.000000	
36.210961	141.000000	
36.230682	131.000000	
36.250404	146.000000	
36.270125	137.000000	
36.289847	141.000000	
36.309568	129.000000	
36.329289	136.000000	
36.349011	113.000000	
36.368732	138.000000	
36.388453	138.000000	
36.408175	153.000000	
36.427896	139.000000	
36.447617	126.000000	
36.467339	131.000000	
36.487060	143.000000	
36.506782	150.000000	
36.526503	140.000000	
36.546224	153.000000	
36.565946	134.000000	
36.585667	129.000000	
36.605388	142.000000	
36.625110	152.000000	
36.644831	140.000000	
36.664552	157.000000	
36.684274	139.000000	
36.703995	157.000000	
36.723717	164.000000	
36.743438	150.000000	
36.763159	197.000000	
36.782881	188.000000	
36.802602	200.000000	
36.822323	262.000000	
36.842045	302.000000	
36.861766	373.000000	
36.881487	378.000000	
36.901209	488.000000	
36.920930	600.000000	
36.940652	679.000000	
36.960373	813.000000	
36.980094	966.000000	
36.999816	1110.000000	
37.019537	1286.000000	
37.039258	1476.000000	
37.058980	1538.000000	
37.078701	1622.000000	
37.098422	1849.000000	
37.118144	1817.000000	
37.137865	1922.000000	
37.157587	1792.000000	
37.177308	1745.000000	
37.197029	1544.000000	
37.216751	1415.000000	
37.236472	1301.000000	
37.256193	1112.000000	
37.275915	952.000000	
37.295636	795.000000	
37.315357	608.000000	
37.335079	522.000000	
37.354800	441.000000	
37.374522	345.000000	
37.394243	280.000000	
37.413964	232.000000	
37.433686	217.000000	
37.453407	152.000000	
37.473128	168.000000	
37.492850	148.000000	
37.512571	147.000000	
37.532292	147.000000	
37.552014	153.000000	
37.571735	147.000000	
37.591457	138.000000	
37.611178	146.000000	
37.630899	148.000000	
37.650621	158.000000	
37.670342	140.000000	
37.690063	134.000000	
37.709785	147.000000	
37.729506	146.000000	
37.749227	140.000000	
37.768949	135.000000	
37.788670	146.000000	
37.808392	154.000000	
37.828113	150.000000	
37.847834	152.000000	
37.867556	131.000000	
37.887277	152.000000	
37.906998	139.000000	
37.926720	148.000000	
37.946441	131.000000	
37.966162	149.000000	
37.985884	134.000000	
38.005605	143.000000	
38.025327	149.000000	
38.045048	125.000000	
38.064769	137.000000	
38.084491	140.000000	
38.104212	147.000000	
38.123933	145.000000	
38.143655	150.000000	
38.163376	136.000000	
38.183097	112.000000	
38.202819	140.000000	
38.222540	155.000000	
38.242262	147.000000	
38.261983	137.000000	
38.281704	128.000000	
38.301426	131.000000	
38.321147	134.000000	
38.340868	152.000000	
38.360590	142.000000	
38.380311	138.000000	
38.400032	149.000000	
38.419754	146.000000	
38.439475	162.000000	
38.459197	136.000000	
38.478918	137.000000	
38.498639	129.000000	
38.518361	142.000000	
38.538082	143.000000	
38.557803	143.000000	
38.577525	156.000000	
38.597246	124.000000	
38.616967	147.000000	
38.636689	149.000000	
38.656410	157.000000	
38.676132	149.000000	
38.695853	154.000000	
38.715574	147.000000	
38.735296	158.000000	
38.755017	156.000000	
38.774738	183.000000	
38.794460	192.000000	
38.814181	195.000000	
38.833902	227.000000	
38.853624	286.000000	
38.873345	326.000000	
38.893067	393.000000	
38.912788	428.000000	
38.932509	529.000000	
38.952231	718.000000	
38.971952	822.000000	
38.991673	961.000000	
39.011395	1122.000000	
39.031116	1301.000000	
39.050837	1451.000000	
39.070559	1602.000000	
39.090280	1788.000000	
39.110002	1933.000000	
39.129723	1984.000000	
39.149444	2057.000000	
39.169166	1988.000000	
39.188887	1954.000000	
39.208608	1940.000000	
39.228330	1907.000000	
39.248051	1755.000000	
39.267772	1658.000000	
39.287494	1451.000000	
39.307215	1217.000000	
39.326937	1039.000000	
39.346658	896.000000	
39.366379	693.000000	
39.386101	573.000000	
39.405822	506.000000	
39.425543	422.000000	
39.445265	333.000000	
39.464986	282.000000	
39.484707	227.000000	
39.504429	211.000000	
39.524150	187.000000	
39.543872	185.000000	
39.563593	187.000000	
39.583314	169.000000	
39.603036	168.000000	
39.622757	148.000000	
39.642478	161.000000	
39.662200	163.000000	
39.681921	183.000000	
39.701642	160.000000	
39.721364	163.000000	
39.741085	135.000000	
39.760807	153.000000	
39.780528	157.000000	
39.800249	157.000000	
39.819971	134.000000	
39.839692	159.000000	
39.859413	147.000000	
39.879135	133.000000	
39.898856	133.000000	
39.918577	125.000000	
39.938299	132.000000	
39.958020	122.000000	
39.977742	132.000000	
39.997463	118.000000	
40.017184	136.000000	
40.036906	139.000000	
40.056627	141.000000	
40.076348	121.000000	
40.096070	155.000000	
40.115791	155.000000	
40.135512	125.000000	
40.155234	147.000000	
40.174955	123.000000	
40.194677	137.000000	
40.214398	134.000000	
40.234119	133.000000	
40.253841	154.000000	
40.273562	141.000000	
40.293283	130.000000	
40.313005	149.000000	
40.332726	134.000000	
40.352447	130.000000	
40.372169	164.000000	
40.391890	166.000000	
40.411612	195.000000	
40.431333	187.000000	
40.451054	195.000000	
40.470776	225.000000	
40.490497	236.000000	
40.510218	325.000000	
40.529940	355.000000	
40.549661	355.000000	
40.569382	434.000000	
40.589104	462.000000	
40.608825	500.000000	
40.628547	534.000000	
40.648268	609.000000	
40.667989	620.000000	
40.687711	670.000000	
40.707432	670.000000	
40.727153	754.000000	
40.746875	716.000000	
40.766596	691.000000	
40.786317	645.000000	
40.806039	595.000000	
40.825760	578.000000	
40.845482	499.000000	
40.865203	461.000000	
40.884924	403.000000	
40.904646	364.000000	
40.924367	343.000000	
40.944088	279.000000	
40.963810	255.000000	
40.983531	214.000000	
41.003252	219.000000	
41.022974	161.000000	
41.042695	169.000000	
41.062417	154.000000	
41.082138	176.000000	
41.101859	128.000000	
41.121581	123.000000	
41.141302	147.000000	
41.161023	158.000000	
41.180745	149.000000	
41.200466	134.000000	
41.220187	130.000000	
41.239909	171.000000	
41.259630	129.000000	
41.279352	140.000000	
41.299073	141.000000	
41.318794	150.000000	
41.338516	150.000000	
41.358237	148.000000	
41.377958	145.000000	
41.397680	132.000000	
41.417401	116.000000	
41.437122	145.000000	
41.456844	140.000000	
41.476565	139.000000	
41.496287	133.000000	
41.516008	121.000000	
41.535729	145.000000	
41.555451	127.000000	
41.575172	122.000000	
41.594893	144.000000	
41.614615	126.000000	
41.634336	137.000000	
41.654057	132.000000	
41.673779	124.000000	
41.693500	130.000000	
41.713222	121.000000	
41.732943	123.000000	
41.752664	144.000000	
41.772386	138.000000	
41.792107	131.000000	
41.811828	124.000000	
41.831550	127.000000	
41.851271	114.000000	
41.870992	134.000000	
41.890714	147.000000	
41.910435	126.000000	
41.930157	111.000000	
41.949878	133.000000	
41.969599	128.000000	
41.989321	126.000000	
42.009042	110.000000	
42.028763	112.000000	
42.048485	132.000000	
42.068206	116.000000	
42.087928	143.000000	
42.107649	137.000000	
42.127370	131.000000	
42.147092	137.000000	
42.166813	118.000000	
42.186534	151.000000	
42.206256	118.000000	
42.225977	117.000000	
42.245698	136.000000	
42.265420	116.000000	
42.285141	158.000000	
42.304863	137.000000	
42.324584	140.000000	
42.344305	117.000000	
42.364027	145.000000	
42.383748	157.000000	
42.403469	139.000000	
42.423191	139.000000	
42.442912	112.000000	
42.462633	153.000000	
42.482355	117.000000	
42.502076	145.000000	
42.521798	147.000000	
42.541519	140.000000	
42.561240	131.000000	
42.580962	108.000000	
42.600683	157.000000	
42.620404	135.000000	
42.640126	119.000000	
42.659847	106.000000	
42.679568	120.000000	
42.699290	117.000000	
42.719011	130.000000	
42.738733	121.000000	
42.758454	133.000000	
42.778175	146.000000	
42.797897	142.000000	
42.817618	141.000000	
42.837339	125.000000	
42.857061	132.000000	
42.876782	138.000000	
42.896503	140.000000	
42.916225	142.000000	
42.935946	147.000000	
42.955668	120.000000	
42.975389	154.000000	
42.995110	170.000000	
43.014832	161.000000	
43.034553	179.000000	
43.054274	156.000000	
43.073996	183.000000	
43.093717	203.000000	
43.113438	193.000000	
43.133160	215.000000	
43.152881	175.000000	
43.172603	175.000000	
43.192324	201.000000	
43.212045	200.000000	
43.231767	207.000000	
43.251488	215.000000	
43.271209	222.000000	
43.290931	202.000000	
43.310652	231.000000	
43.330373	238.000000	
43.350095	236.000000	
43.369816	288.000000	
43.389538	337.000000	
43.409259	349.000000	
43.428980	408.000000	
43.448702	376.000000	
43.468423	413.000000	
43.488144	491.000000	
43.507866	437.000000	
43.527587	403.000000	
43.547308	459.000000	
43.567030	487.000000	
43.586751	427.000000	
43.606473	428.000000	
43.626194	387.000000	
43.645915	405.000000	
43.665637	352.000000	
43.685358	328.000000	
43.705079	309.000000	
43.724801	288.000000	
43.744522	255.000000	
43.764243	210.000000	
43.783965	203.000000	
43.803686	197.000000	
43.823408	192.000000	
43.843129	165.000000	
43.862850	155.000000	
43.882572	177.000000	
43.902293	145.000000	
43.922014	162.000000	
43.941736	148.000000	
43.961457	144.000000	
43.981178	136.000000	
44.000900	121.000000	
44.020621	144.000000	
44.040343	147.000000	
44.060064	117.000000	
44.079785	123.000000	
44.099507	137.000000	
44.119228	129.000000	
44.138949	147.000000	
44.158671	117.000000	
44.178392	140.000000	
44.198113	138.000000	
44.217835	135.000000	
44.237556	108.000000	
44.257278	122.000000	
44.276999	153.000000	
44.296720	153.000000	
44.316442	145.000000	
44.336163	130.000000	
44.355884	135.000000	
44.375606	113.000000	
44.395327	121.000000	
44.415048	138.000000	
44.434770	135.000000	
44.454491	124.000000	
44.474213	115.000000	
44.493934	111.000000	
44.513655	130.000000	
44.533377	130.000000	
44.553098	133.000000	
44.572819	110.000000	
44.592541	125.000000	
44.612262	119.000000	
44.631983	129.000000	
44.651705	135.000000	
44.671426	120.000000	
44.691148	127.000000	
44.710869	131.000000	
44.730590	129.000000	
44.750312	108.000000	
44.770033	129.000000	
44.789754	120.000000	
44.809476	124.000000	
44.829197	144.000000	
44.848918	121.000000	
44.868640	122.000000	
44.888361	125.000000	
44.908083	128.000000	
44.927804	116.000000	
44.947525	109.000000	
44.967247	134.000000	
44.986968	124.000000	
45.006689	116.000000	
45.026411	119.000000	
45.046132	118.000000	
45.065853	139.000000	
45.085575	107.000000	
45.105296	110.000000	
45.125018	150.000000	
45.144739	125.000000	
45.164460	118.000000	
45.184182	112.000000	
45.203903	113.000000	
45.223624	120.000000	
45.243346	129.000000	
45.263067	136.000000	
45.282788	124.000000	
45.302510	116.000000	
45.322231	119.000000	
45.341953	120.000000	
45.361674	126.000000	
45.381395	136.000000	
45.401117	137.000000	
45.420838	119.000000	
45.440559	125.000000	
45.460281	103.000000	
45.480002	105.000000	
45.499723	115.000000	
45.519445	126.000000	
45.539166	123.000000	
45.558888	134.000000	
45.578609	139.000000	
45.598330	117.000000	
45.618052	110.000000	
45.637773	122.000000	
45.657494	128.000000	
45.677216	114.000000	
45.696937	119.000000	
45.716658	121.000000	
45.736380	114.000000	
45.756101	131.000000	
45.775823	108.000000	
45.795544	125.000000	
45.815265	119.000000	
45.834987	100.000000	
45.854708	131.000000	
45.874429	133.000000	
45.894151	133.000000	
45.913872	108.000000	
45.933593	118.000000	
45.953315	127.000000	
45.973036	132.000000	
45.992758	124.000000	
46.012479	121.000000	
46.032200	111.000000	
46.051922	140.000000	
46.071643	133.000000	
46.091364	120.000000	
46.111086	123.000000	
46.130807	119.000000	
46.150528	136.000000	
46.170250	124.000000	
46.189971	120.000000	
46.209693	122.000000	
46.229414	131.000000	
46.249135	123.000000	
46.268857	114.000000	
46.288578	130.000000	
46.308299	126.000000	
46.328021	124.000000	
46.347742	121.000000	
46.367463	127.000000	
46.387185	130.000000	
46.406906	107.000000	
46.426628	111.000000	
46.446349	120.000000	
46.466070	131.000000	
46.485792	118.000000	
46.505513	122.000000	
46.525234	127.000000	
46.544956	108.000000	
46.564677	115.000000	
46.584398	125.000000	
46.604120	133.000000	
46.623841	117.000000	
46.643563	125.000000	
46.663284	125.000000	
46.683005	114.000000	
46.702727	132.000000	
46.722448	98.000000	
46.742169	136.000000	
46.761891	119.000000	
46.781612	100.000000	
46.801333	115.000000	
46.821055	114.000000	
46.840776	129.000000	
46.860498	106.000000	
46.880219	120.000000	
46.899940	99.000000	
46.919662	125.000000	
46.939383	123.000000	
46.959104	130.000000	
46.978826	114.000000	
46.998547	132.000000	
47.018268	113.000000	
47.037990	124.000000	
47.057711	103.000000	
47.077433	105.000000	
47.097154	121.000000	
47.116875	123.000000	
47.136597	112.000000	
47.156318	114.000000	
47.176039	114.000000	
47.195761	122.000000	
47.215482	127.000000	
47.235203	116.000000	
47.254925	140.000000	
47.274646	119.000000	
47.294368	126.000000	
47.314089	112.000000	
47.333810	143.000000	
47.353532	124.000000	
47.373253	130.000000	
47.392974	120.000000	
47.412696	127.000000	
47.432417	140.000000	
47.452138	103.000000	
47.471860	130.000000	
47.491581	140.000000	
47.511303	113.000000	
47.531024	118.000000	
47.550745	123.000000	
47.570467	115.000000	
47.590188	129.000000	
47.609909	122.000000	
47.629631	123.000000	
47.649352	124.000000	
47.669073	111.000000	
47.688795	122.000000	
47.708516	115.000000	
47.728238	118.000000	
47.747959	115.000000	
47.767680	135.000000	
47.787402	105.000000	
47.807123	118.000000	
47.826844	122.000000	
47.846566	105.000000	
47.866287	136.000000	
47.886008	93.000000	
47.905730	120.000000	
47.925451	123.000000	
47.945173	130.000000	
47.964894	108.000000	
47.984615	124.000000	
48.004337	111.000000	
48.024058	106.000000	
48.043779	118.000000	
48.063501	125.000000	
48.083222	135.000000	
48.102943	124.000000	
48.122665	122.000000	
48.142386	125.000000	
48.162108	113.000000	
48.181829	120.000000	
48.201550	125.000000	
48.221272	136.000000	
48.240993	116.000000	
48.260714	113.000000	
48.280436	105.000000	
48.300157	125.000000	
48.319878	111.000000	
48.339600	118.000000	
48.359321	131.000000	
48.379043	132.000000	
48.398764	131.000000	
48.418485	110.000000	
48.438207	106.000000	
48.457928	106.000000	
48.477649	140.000000	
48.497371	112.000000	
48.517092	113.000000	
48.536813	116.000000	
48.556535	135.000000	
48.576256	120.000000	
48.595978	122.000000	
48.615699	123.000000	
48.635420	133.000000	
48.655142	112.000000	
48.674863	116.000000	
48.694584	95.000000	
48.714306	106.000000	
48.734027	119.000000	
48.753748	150.000000	
48.773470	110.000000	
48.793191	105.000000	
48.812913	108.000000	
48.832634	132.000000	
48.852355	124.000000	
48.872077	134.000000	
48.891798	119.000000	
48.911519	140.000000	
48.931241	115.000000	
48.950962	130.000000	
48.970683	133.000000	
48.990405	126.000000	
49.010126	136.000000	
49.029848	126.000000	
49.049569	143.000000	
49.069290	145.000000	
49.089012	129.000000	
49.108733	141.000000	
49.128454	161.000000	
49.148176	142.000000	
49.167897	149.000000	
49.187618	141.000000	
49.207340	188.000000	
49.227061	188.000000	
49.246783	217.000000	
49.266504	245.000000	
49.286225	244.000000	
49.305947	242.000000	
49.325668	263.000000	
49.345389	270.000000	
49.365111	284.000000	
49.384832	265.000000	
49.404553	271.000000	
49.424275	284.000000	
49.443996	219.000000	
49.463718	217.000000	
49.483439	203.000000	
49.503160	198.000000	
49.522882	158.000000	
49.542603	177.000000	
49.562324	149.000000	
49.582046	164.000000	
49.601767	137.000000	
49.621488	139.000000	
49.641210	127.000000	
49.660931	123.000000	
49.680653	110.000000	
49.700374	121.000000	
49.720095	123.000000	
49.739817	126.000000	
49.759538	110.000000	
49.779259	111.000000	
49.798981	129.000000	
49.818702	118.000000	
49.838423	148.000000	
49.858145	132.000000	
49.877866	125.000000	
49.897588	124.000000	
49.917309	131.000000	
49.937030	128.000000	
49.956752	140.000000	
49.976473	134.000000	
49.996194	142.000000	
50.015916	129.000000	
50.035637	149.000000	
50.055358	135.000000	
50.075080	113.000000	
50.094801	123.000000	
50.114523	121.000000	
50.134244	125.000000	
50.153965	135.000000	
50.173687	138.000000	
50.193408	140.000000	
50.213129	142.000000	
50.232851	140.000000	
50.252572	131.000000	
50.272293	138.000000	
50.292015	143.000000	
50.311736	142.000000	
50.331458	150.000000	
50.351179	125.000000	
50.370900	125.000000	
50.390622	145.000000	
50.410343	138.000000	
50.430064	151.000000	
50.449786	151.000000	
50.469507	140.000000	
50.489228	164.000000	
50.508950	155.000000	
50.528671	164.000000	
50.548393	181.000000	
50.568114	196.000000	
50.587835	196.000000	
50.607557	244.000000	
50.627278	212.000000	
50.646999	235.000000	
50.666721	253.000000	
50.686442	251.000000	
50.706163	254.000000	
50.725885	259.000000	
50.745606	257.000000	
50.765328	241.000000	
50.785049	245.000000	
50.804770	236.000000	
50.824492	240.000000	
50.844213	209.000000	
50.863934	237.000000	
50.883656	203.000000	
50.903377	179.000000	
50.923099	192.000000	
50.942820	181.000000	
50.962541	161.000000	
50.982263	147.000000	
51.001984	161.000000	
51.021705	145.000000	
51.041427	156.000000	
51.061148	138.000000	
51.080869	143.000000	
51.100591	147.000000	
51.120312	139.000000	
51.140034	136.000000	
51.159755	139.000000	
51.179476	121.000000	
51.199198	138.000000	
51.218919	128.000000	
51.238640	125.000000	
51.258362	117.000000	
51.278083	129.000000	
51.297804	152.000000	
51.317526	131.000000	
51.337247	118.000000	
51.356969	131.000000	
51.376690	111.000000	
51.396411	125.000000	
51.416133	131.000000	
51.435854	128.000000	
51.455575	106.000000	
51.475297	119.000000	
51.495018	129.000000	
51.514739	128.000000	
51.534461	116.000000	
51.554182	126.000000	
51.573904	135.000000	
51.593625	120.000000	
51.613346	136.000000	
51.633068	107.000000	
51.652789	119.000000	
51.672510	137.000000	
51.692232	112.000000	
51.711953	122.000000	
51.731674	114.000000	
51.751396	113.000000	
51.771117	127.000000	
51.790839	116.000000	
51.810560	145.000000	
51.830281	139.000000	
51.850003	118.000000	
51.869724	118.000000	
51.889445	126.000000	
51.909167	117.000000	
51.928888	143.000000	
51.948609	115.000000	
51.968331	110.000000	
51.988052	131.000000	
52.007774	127.000000	
52.027495	112.000000	
52.047216	117.000000	
52.066938	136.000000	
52.086659	125.000000	
52.106380	123.000000	
52.126102	131.000000	
52.145823	131.000000	
52.165544	130.000000	
52.185266	129.000000	
52.204987	133.000000	
52.224709	111.000000	
52.244430	119.000000	
52.264151	118.000000	
52.283873	123.000000	
52.303594	115.000000	
52.323315	115.000000	
52.343037	129.000000	
52.362758	120.000000	
52.382479	125.000000	
52.402201	125.000000	
52.421922	121.000000	
52.441644	130.000000	
52.461365	115.000000	
52.481086	132.000000	
52.500808	112.000000	
52.520529	136.000000	
52.540250	124.000000	
52.559972	119.000000	
52.579693	124.000000	
52.599414	119.000000	
52.619136	135.000000	
52.638857	125.000000	
52.658579	113.000000	
52.678300	130.000000	
52.698021	114.000000	
52.717743	104.000000	
52.737464	124.000000	
52.757185	102.000000	
52.776907	134.000000	
52.796628	127.000000	
52.816349	126.000000	
52.836071	130.000000	
52.855792	115.000000	
52.875514	142.000000	
52.895235	115.000000	
52.914956	135.000000	
52.934678	139.000000	
52.954399	129.000000	
52.974120	139.000000	
52.993842	128.000000	
53.013563	104.000000	
53.033284	117.000000	
53.053006	146.000000	
53.072727	144.000000	
53.092449	111.000000	
53.112170	121.000000	
53.131891	141.000000	
53.151613	123.000000	
53.171334	156.000000	
53.191055	125.000000	
53.210777	122.000000	
53.230498	134.000000	
53.250219	138.000000	
53.269941	119.000000	
53.289662	142.000000	
53.309384	150.000000	
53.329105	150.000000	
53.348826	153.000000	
53.368548	150.000000	
53.388269	170.000000	
53.407990	163.000000	
53.427712	179.000000	
53.447433	208.000000	
53.467154	204.000000	
53.486876	197.000000	
53.506597	191.000000	
53.526319	193.000000	
53.546040	199.000000	
53.565761	202.000000	
53.585483	204.000000	
53.605204	195.000000	
53.624925	182.000000	
53.644647	203.000000	
53.664368	185.000000	
53.684089	198.000000	
53.703811	203.000000	
53.723532	158.000000	
53.743254	207.000000	
53.762975	167.000000	
53.782696	239.000000	
53.802418	235.000000	
53.822139	232.000000	
53.841860	240.000000	
53.861582	247.000000	
53.881303	277.000000	
53.901024	263.000000	
53.920746	294.000000	
53.940467	316.000000	
53.960189	335.000000	
53.979910	355.000000	
53.999631	331.000000	
54.019353	299.000000	
54.039074	304.000000	
54.058795	271.000000	
54.078517	250.000000	
54.098238	246.000000	
54.117959	219.000000	
54.137681	240.000000	
54.157402	197.000000	
54.177124	199.000000	
54.196845	148.000000	
54.216566	166.000000	
54.236288	156.000000	
54.256009	137.000000	
54.275730	140.000000	
54.295452	134.000000	
54.315173	133.000000	
54.334894	134.000000	
54.354616	149.000000	
54.374337	127.000000	
54.394059	133.000000	
54.413780	124.000000	
54.433501	111.000000	
54.453223	134.000000	
54.472944	113.000000	
54.492665	127.000000	
54.512387	127.000000	
54.532108	153.000000	
54.551829	132.000000	
54.571551	153.000000	
54.591272	115.000000	
54.610994	137.000000	
54.630715	149.000000	
54.650436	126.000000	
54.670158	122.000000	
54.689879	133.000000	
54.709600	154.000000	
54.729322	157.000000	
54.749043	138.000000	
54.768764	122.000000	
54.788486	142.000000	
54.808207	130.000000	
54.827929	155.000000	
54.847650	146.000000	
54.867371	137.000000	
54.887093	148.000000	
54.906814	135.000000	
54.926535	135.000000	
54.946257	123.000000	
54.965978	126.000000	
54.985699	133.000000	
55.005421	123.000000	
55.025142	110.000000	
55.044864	122.000000	
55.064585	127.000000	
55.084306	127.000000	
55.104028	113.000000	
55.123749	125.000000	
55.143470	134.000000	
55.163192	118.000000	
55.182913	129.000000	
55.202634	118.000000	
55.222356	124.000000	
55.242077	140.000000	
55.261799	142.000000	
55.281520	128.000000	
55.301241	139.000000	
55.320963	118.000000	
55.340684	132.000000	
55.360405	125.000000	
55.380127	128.000000	
55.399848	124.000000	
55.419569	133.000000	
55.439291	131.000000	
55.459012	139.000000	
55.478734	151.000000	
55.498455	149.000000	
55.518176	128.000000	
55.537898	127.000000	
55.557619	146.000000	
55.577340	144.000000	
55.597062	108.000000	
55.616783	129.000000	
55.636504	155.000000	
55.656226	118.000000	
55.675947	120.000000	
55.695669	124.000000	
55.715390	138.000000	
55.735111	119.000000	
55.754833	134.000000	
55.774554	118.000000	
55.794275	136.000000	
55.813997	130.000000	
55.833718	125.000000	
55.853439	129.000000	
55.873161	131.000000	
55.892882	125.000000	
55.912604	138.000000	
55.932325	149.000000	
55.952046	125.000000	
55.971768	136.000000	
55.991489	144.000000	
56.011210	142.000000	
56.030932	135.000000	
56.050653	126.000000	
56.070374	128.000000	
56.090096	150.000000	
56.109817	138.000000	
56.129539	121.000000	
56.149260	147.000000	
56.168981	132.000000	
56.188703	125.000000	
56.208424	142.000000	
56.228145	151.000000	
56.247867	139.000000	
56.267588	122.000000	
56.287309	136.000000	
56.307031	128.000000	
56.326752	137.000000	
56.346474	115.000000	
56.366195	131.000000	
56.385916	112.000000	
56.405638	158.000000	
56.425359	147.000000	
56.445080	142.000000	
56.464802	118.000000	
56.484523	136.000000	
56.504244	138.000000	
56.523966	142.000000	
56.543687	151.000000	
56.563409	150.000000	
56.583130	167.000000	
56.602851	154.000000	
56.622573	163.000000	
56.642294	173.000000	
56.662015	192.000000	
56.681737	193.000000	
56.701458	177.000000	
56.721179	212.000000	
56.740901	219.000000	
56.760622	230.000000	
56.780344	260.000000	
56.800065	295.000000	
56.819786	360.000000	
56.839508	383.000000	
56.859229	457.000000	
56.878950	512.000000	
56.898672	643.000000	
56.918393	676.000000	
56.938114	818.000000	
56.957836	902.000000	
56.977557	1005.000000	
56.997279	1114.000000	
57.017000	1231.000000	
57.036721	1355.000000	
57.056443	1394.000000	
57.076164	1336.000000	
57.095885	1436.000000	
57.115607	1344.000000	
57.135328	1461.000000	
57.155049	1371.000000	
57.174771	1256.000000	
57.194492	1297.000000	
57.214214	1121.000000	
57.233935	1008.000000	
57.253656	1045.000000	
57.273378	881.000000	
57.293099	749.000000	
57.312820	728.000000	
57.332542	636.000000	
57.352263	588.000000	
57.371984	532.000000	
57.391706	487.000000	
57.411427	440.000000	
57.431149	384.000000	
57.450870	386.000000	
57.470591	349.000000	
57.490313	385.000000	
57.510034	346.000000	
57.529755	290.000000	
57.549477	328.000000	
57.569198	277.000000	
57.588919	245.000000	
57.608641	246.000000	
57.628362	225.000000	
57.648084	213.000000	
57.667805	202.000000	
57.687526	198.000000	
57.707248	174.000000	
57.726969	173.000000	
57.746690	150.000000	
57.766412	144.000000	
57.786133	159.000000	
57.805854	130.000000	
57.825576	134.000000	
57.845297	147.000000	
57.865019	121.000000	
57.884740	148.000000	
57.904461	117.000000	
57.924183	135.000000	
57.943904	124.000000	
57.963625	135.000000	
57.983347	121.000000	
58.003068	147.000000	
58.022789	136.000000	
58.042511	136.000000	
58.062232	123.000000	
58.081954	117.000000	
58.101675	115.000000	
58.121396	134.000000	
58.141118	130.000000	
58.160839	120.000000	
58.180560	141.000000	
58.200282	147.000000	
58.220003	129.000000	
58.239724	124.000000	
58.259446	123.000000	
58.279167	121.000000	
58.298889	128.000000	
58.318610	134.000000	
58.338331	128.000000	
58.358053	123.000000	
58.377774	127.000000	
58.397495	132.000000	
58.417217	141.000000	
58.436938	127.000000	
58.456659	126.000000	
58.476381	150.000000	
58.496102	130.000000	
58.515824	118.000000	
58.535545	130.000000	
58.555266	128.000000	
58.574988	102.000000	
58.594709	123.000000	
58.614430	142.000000	
58.634152	109.000000	
58.653873	124.000000	
58.673594	144.000000	
58.693316	129.000000	
58.713037	122.000000	
58.732759	135.000000	
58.752480	123.000000	
58.772201	118.000000	
58.791923	126.000000	
58.811644	114.000000	
58.831365	109.000000	
58.851087	131.000000	
58.870808	129.000000	
58.890529	134.000000	
58.910251	119.000000	
58.929972	110.000000	
58.949694	120.000000	
58.969415	111.000000	
58.989136	96.000000	
59.008858	131.000000	
59.028579	107.000000	
59.048300	127.000000	
59.068022	122.000000	
59.087743	138.000000	
59.107464	131.000000	
59.127186	127.000000	
59.146907	135.000000	
59.166629	123.000000	
59.186350	124.000000	
59.206071	113.000000	
59.225793	127.000000	
59.245514	114.000000	
59.265235	130.000000	
59.284957	143.000000	
59.304678	118.000000	
59.324399	138.000000	
59.344121	108.000000	
59.363842	138.000000	
59.383564	125.000000	
59.403285	121.000000	
59.423006	119.000000	
59.442728	111.000000	
59.462449	133.000000	
59.482170	115.000000	
59.501892	136.000000	
59.521613	137.000000	
59.541334	123.000000	
59.561056	117.000000	
59.580777	127.000000	
59.600499	114.000000	
59.620220	114.000000	
59.639941	116.000000	
59.659663	165.000000	
59.679384	126.000000	
59.699105	113.000000	
59.718827	135.000000	
59.738548	115.000000	
59.758270	109.000000	
59.777991	120.000000	
59.797712	123.000000	
59.817434	119.000000	
59.837155	128.000000	
59.856876	127.000000	
59.876598	119.000000	
59.896319	129.000000	
59.916040	134.000000	
59.935762	133.000000	
59.955483	135.000000	
59.975205	132.000000	
59.994926	113.000000	
60.014647	119.000000	
60.034369	103.000000	
60.054090	132.000000	
60.073811	145.000000	
60.093533	110.000000	
60.113254	136.000000	
60.132975	135.000000	
60.152697	127.000000	
60.172418	119.000000	
60.192140	123.000000	
60.211861	116.000000	
60.231582	130.000000	
60.251304	130.000000	
60.271025	139.000000	
60.290746	99.000000	
60.310468	118.000000	
60.330189	127.000000	
60.349910	112.000000	
60.369632	114.000000	
60.389353	103.000000	
60.409075	139.000000	
60.428796	119.000000	
60.448517	141.000000	
60.468239	111.000000	
60.487960	143.000000	
60.507681	119.000000	
60.527403	127.000000	
60.547124	135.000000	
60.566845	108.000000	
60.586567	117.000000	
60.606288	124.000000	
60.626010	104.000000	
60.645731	138.000000	
60.665452	111.000000	
60.685174	128.000000	
60.704895	127.000000	
60.724616	141.000000	
60.744338	127.000000	
60.764059	114.000000	
60.783780	123.000000	
60.803502	140.000000	
60.823223	143.000000	
60.842945	108.000000	
60.862666	129.000000	
60.882387	108.000000	
60.902109	113.000000	
60.921830	106.000000	
60.941551	130.000000	
60.961273	100.000000	
60.980994	139.000000	
61.000715	107.000000	
61.020437	114.000000	
61.040158	135.000000	
61.059880	138.000000	
61.079601	111.000000	
61.099322	122.000000	
61.119044	107.000000	
61.138765	140.000000	
61.158486	113.000000	
61.178208	124.000000	
61.197929	127.000000	
61.217650	110.000000	
61.237372	133.000000	
61.257093	123.000000	
61.276815	129.000000	
61.296536	125.000000	
61.316257	109.000000	
61.335979	130.000000	
61.355700	131.000000	
61.375421	107.000000	
61.395143	132.000000	
61.414864	136.000000	
61.434585	116.000000	
61.454307	128.000000	
61.474028	117.000000	
61.493750	139.000000	
61.513471	137.000000	
61.533192	144.000000	
61.552914	127.000000	
61.572635	133.000000	
61.592356	129.000000	
61.612078	131.000000	
61.631799	123.000000	
61.651520	124.000000	
61.671242	136.000000	
61.690963	141.000000	
61.710685	122.000000	
61.730406	128.000000	
61.750127	119.000000	
61.769849	146.000000	
61.789570	126.000000	
61.809291	133.000000	
61.829013	131.000000	
61.848734	162.000000	
61.868455	140.000000	
61.888177	152.000000	
61.907898	155.000000	
61.927620	158.000000	
61.947341	160.000000	
61.967062	164.000000	
61.986784	182.000000	
62.006505	196.000000	
62.026226	206.000000	
62.045948	230.000000	
62.065669	229.000000	
62.085390	249.000000	
62.105112	251.000000	
62.124833	257.000000	
62.144555	330.000000	
62.164276	359.000000	
62.183997	380.000000	
62.203719	395.000000	
62.223440	446.000000	
62.243161	439.000000	
62.262883	484.000000	
62.282604	437.000000	
62.302325	469.000000	
62.322047	442.000000	
62.341768	437.000000	
62.361490	509.000000	
62.381211	438.000000	
62.400932	369.000000	
62.420654	424.000000	
62.440375	393.000000	
62.460096	365.000000	
62.479818	364.000000	
62.499539	309.000000	
62.519260	325.000000	
62.538982	270.000000	
62.558703	275.000000	
62.578425	275.000000	
62.598146	281.000000	
62.617867	240.000000	
62.637589	268.000000	
62.657310	269.000000	
62.677031	254.000000	
62.696753	232.000000	
62.716474	236.000000	
62.736195	238.000000	
62.755917	209.000000	
62.775638	236.000000	
62.795360	233.000000	
62.815081	250.000000	
62.834802	190.000000	
62.854524	224.000000	
62.874245	199.000000	
62.893966	185.000000	
62.913688	199.000000	
62.933409	193.000000	
62.953130	182.000000	
62.972852	197.000000	
62.992573	155.000000	
63.012295	151.000000	
63.032016	148.000000	
63.051737	155.000000	
63.071459	172.000000	
63.091180	158.000000	
63.110901	165.000000	
63.130623	138.000000	
63.150344	132.000000	
63.170065	135.000000	
63.189787	150.000000	
63.209508	161.000000	
63.229230	129.000000	
63.248951	125.000000	
63.268672	136.000000	
63.288394	126.000000	
63.308115	152.000000	
63.327836	133.000000	
63.347558	134.000000	
63.367279	125.000000	
63.387000	138.000000	
63.406722	164.000000	
63.426443	109.000000	
63.446165	125.000000	
63.465886	141.000000	
63.485607	144.000000	
63.505329	148.000000	
63.525050	138.000000	
63.544771	125.000000	
63.564493	120.000000	
63.584214	147.000000	
63.603935	127.000000	
63.623657	125.000000	
63.643378	150.000000	
63.663100	140.000000	
63.682821	119.000000	
63.702542	154.000000	
63.722264	140.000000	
63.741985	148.000000	
63.761706	157.000000	
63.781428	161.000000	
63.801149	155.000000	
63.820870	156.000000	
63.840592	163.000000	
63.860313	178.000000	
63.880035	188.000000	
63.899756	175.000000	
63.919477	145.000000	
63.939199	156.000000	
63.958920	148.000000	
63.978641	167.000000	
63.998363	153.000000	
64.018084	180.000000	
64.037805	146.000000	
64.057527	137.000000	
64.077248	161.000000	
64.096970	150.000000	
64.116691	155.000000	
64.136412	139.000000	
64.156134	125.000000	
64.175855	125.000000	
64.195576	126.000000	
64.215298	137.000000	
64.235019	160.000000	
64.254740	127.000000	
64.274462	139.000000	
64.294183	115.000000	
64.313905	131.000000	
64.333626	132.000000	
64.353347	115.000000	
64.373069	127.000000	
64.392790	136.000000	
64.412511	127.000000	
64.432233	114.000000	
64.451954	129.000000	
64.471675	130.000000	
64.491397	123.000000	
64.511118	137.000000	
64.530840	120.000000	
64.550561	138.000000	
64.570282	130.000000	
64.590004	126.000000	
64.609725	112.000000	
64.629446	115.000000	
64.649168	128.000000	
64.668889	125.000000	
64.688610	130.000000	
64.708332	130.000000	
64.728053	108.000000	
64.747775	119.000000	
64.767496	125.000000	
64.787217	108.000000	
64.806939	125.000000	
64.826660	126.000000	
64.846381	127.000000	
64.866103	125.000000	
64.885824	110.000000	
64.905545	132.000000	
64.925267	134.000000	
64.944988	123.000000	
64.964710	141.000000	
64.984431	151.000000	
65.004152	126.000000	
65.023874	130.000000	
65.043595	103.000000	
65.063316	130.000000	
65.083038	135.000000	
65.102759	150.000000	
65.122480	130.000000	
65.142202	142.000000	
65.161923	127.000000	
65.181645	118.000000	
65.201366	127.000000	
65.221087	114.000000	
65.240809	130.000000	
65.260530	127.000000	
65.280251	159.000000	
65.299973	136.000000	
65.319694	138.000000	
65.339415	125.000000	
65.359137	132.000000	
65.378858	120.000000	
65.398580	125.000000	
65.418301	125.000000	
65.438022	127.000000	
65.457744	111.000000	
65.477465	115.000000	
65.497186	118.000000	
65.516908	119.000000	
65.536629	121.000000	
65.556350	130.000000	
65.576072	123.000000	
65.595793	132.000000	
65.615515	115.000000	
65.635236	131.000000	
65.654957	122.000000	
65.674679	137.000000	
65.694400	122.000000	
65.714121	148.000000	
65.733843	133.000000	
65.753564	122.000000	
65.773285	124.000000	
65.793007	137.000000	
65.812728	128.000000	
65.832450	126.000000	
65.852171	125.000000	
65.871892	118.000000	
65.891614	149.000000	
65.911335	116.000000	
65.931056	123.000000	
65.950778	145.000000	
65.970499	139.000000	
65.990220	155.000000	
66.009942	120.000000	
66.029663	124.000000	
66.049385	116.000000	
66.069106	138.000000	
66.088827	126.000000	
66.108549	131.000000	
66.128270	129.000000	
66.147991	116.000000	
66.167713	118.000000	
66.187434	132.000000	
66.207155	117.000000	
66.226877	118.000000	
66.246598	124.000000	
66.266320	128.000000	
66.286041	127.000000	
66.305762	122.000000	
66.325484	138.000000	
66.345205	116.000000	
66.364926	119.000000	
66.384648	138.000000	
66.404369	124.000000	
66.424090	134.000000	
66.443812	120.000000	
66.463533	113.000000	
66.483255	110.000000	
66.502976	96.000000	
66.522697	124.000000	
66.542419	111.000000	
66.562140	125.000000	
66.581861	113.000000	
66.601583	135.000000	
66.621304	133.000000	
66.641025	118.000000	
66.660747	130.000000	
66.680468	121.000000	
66.700190	103.000000	
66.719911	117.000000	
66.739632	112.000000	
66.759354	149.000000	
66.779075	121.000000	
66.798796	114.000000	
66.818518	123.000000	
66.838239	130.000000	
66.857960	137.000000	
66.877682	125.000000	
66.897403	145.000000	
66.917125	138.000000	
66.936846	114.000000	
66.956567	147.000000	
66.976289	124.000000	
66.996010	112.000000	
67.015731	119.000000	
67.035453	143.000000	
67.055174	133.000000	
67.074895	135.000000	
67.094617	125.000000	
67.114338	122.000000	
67.134060	134.000000	
67.153781	123.000000	
67.173502	138.000000	
67.193224	127.000000	
67.212945	137.000000	
67.232666	123.000000	
67.252388	138.000000	
67.272109	115.000000	
67.291830	121.000000	
67.311552	132.000000	
67.331273	129.000000	
67.350995	128.000000	
67.370716	128.000000	
67.390437	105.000000	
67.410159	127.000000	
67.429880	129.000000	
67.449601	137.000000	
67.469323	131.000000	
67.489044	125.000000	
67.508765	100.000000	
67.528487	133.000000	
67.548208	108.000000	
67.567930	108.000000	
67.587651	136.000000	
67.607372	119.000000	
67.627094	123.000000	
67.646815	130.000000	
67.666536	125.000000	
67.686258	134.000000	
67.705979	123.000000	
67.725700	128.000000	
67.745422	118.000000	
67.765143	132.000000	
67.784865	132.000000	
67.804586	120.000000	
67.824307	124.000000	
67.844029	124.000000	
67.863750	142.000000	
67.883471	116.000000	
67.903193	124.000000	
67.922914	110.000000	
67.942635	118.000000	
67.962357	143.000000	
67.982078	135.000000	
68.001800	127.000000	
68.021521	147.000000	
68.041242	137.000000	
68.060964	144.000000	
68.080685	134.000000	
68.100406	126.000000	
68.120128	111.000000	
68.139849	132.000000	
68.159570	128.000000	
68.179292	128.000000	
68.199013	131.000000	
68.218735	117.000000	
68.238456	133.000000	
68.258177	114.000000	
68.277899	114.000000	
68.297620	140.000000	
68.317341	131.000000	
68.337063	118.000000	
68.356784	137.000000	
68.376505	120.000000	
68.396227	147.000000	
68.415948	136.000000	
68.435670	120.000000	
68.455391	132.000000	
68.475112	128.000000	
68.494834	146.000000	
68.514555	137.000000	
68.534276	129.000000	
68.553998	141.000000	
68.573719	133.000000	
68.593441	128.000000	
68.613162	140.000000	
68.632883	126.000000	
68.652605	137.000000	
68.672326	124.000000	
68.692047	151.000000	
68.711769	117.000000	
68.731490	124.000000	
68.751211	128.000000	
68.770933	128.000000	
68.790654	132.000000	
68.810376	120.000000	
68.830097	135.000000	
68.849818	136.000000	
68.869540	121.000000	
68.889261	127.000000	
68.908982	122.000000	
68.928704	123.000000	
68.948425	136.000000	
68.968146	115.000000	
68.987868	132.000000	
69.007589	120.000000	
69.027311	142.000000	
69.047032	144.000000	
69.066753	147.000000	
69.086475	115.000000	
69.106196	131.000000	
69.125917	135.000000	
69.145639	127.000000	
69.165360	136.000000	
69.185081	99.000000	
69.204803	118.000000	
69.224524	103.000000	
69.244246	126.000000	
69.263967	151.000000	
69.283688	137.000000	
69.303410	156.000000	
69.323131	137.000000	
69.342852	110.000000	
69.362574	141.000000	
69.382295	129.000000	
69.402016	135.000000	
69.421738	134.000000	
69.441459	148.000000	
69.461181	122.000000	
69.480902	121.000000	
69.500623	150.000000	
69.520345	147.000000	
69.540066	155.000000	
69.559787	127.000000	
69.579509	118.000000	
69.599230	137.000000	
69.618951	141.000000	
69.638673	130.000000	
69.658394	116.000000	
69.678116	137.000000	
69.697837	133.000000	
69.717558	142.000000	
69.737280	130.000000	
69.757001	141.000000	
69.776722	119.000000	
69.796444	131.000000	
69.816165	127.000000	
69.835886	134.000000	
69.855608	129.000000	
69.875329	127.000000	
69.895051	130.000000	
69.914772	126.000000	
69.934493	146.000000	
69.954215	128.000000	
69.973936	106.000000	
69.993657	135.000000	
70.013379	134.000000	
70.033100	115.000000	
70.052821	148.000000	
70.072543	146.000000	
70.092264	117.000000	
70.111986	132.000000	
70.131707	144.000000	
70.151428	136.000000	
70.171150	149.000000	
70.190871	112.000000	
70.210592	143.000000	
70.230314	149.000000	
70.250035	134.000000	
70.269756	124.000000	
70.289478	148.000000	
70.309199	133.000000	
70.328921	143.000000	
70.348642	145.000000	
70.368363	147.000000	
70.388085	127.000000	
70.407806	128.000000	
70.427527	147.000000	
70.447249	136.000000	
70.466970	149.000000	
70.486691	122.000000	
70.506413	133.000000	
70.526134	129.000000	
70.545856	144.000000	
70.565577	128.000000	
70.585298	122.000000	
70.605020	133.000000	
70.624741	136.000000	
70.644462	143.000000	
70.664184	122.000000	
70.683905	135.000000	
70.703626	138.000000	
70.723348	149.000000	
70.743069	136.000000	
70.762791	136.000000	
70.782512	127.000000	
70.802233	109.000000	
70.821955	134.000000	
70.841676	126.000000	
70.861397	145.000000	
70.881119	129.000000	
70.900840	147.000000	
70.920561	122.000000	
70.940283	141.000000	
70.960004	150.000000	
70.979726	140.000000	
70.999447	125.000000	
71.019168	159.000000	
71.038890	134.000000	
71.058611	138.000000	
71.078332	170.000000	
71.098054	133.000000	
71.117775	139.000000	
71.137496	152.000000	
71.157218	144.000000	
71.176939	137.000000	
71.196661	140.000000	
71.216382	139.000000	
71.236103	125.000000	
71.255825	132.000000	
71.275546	165.000000	
71.295267	130.000000	
71.314989	148.000000	
71.334710	151.000000	
71.354431	148.000000	
71.374153	127.000000	
71.393874	158.000000	
71.413596	156.000000	
71.433317	178.000000	
71.453038	178.000000	
71.472760	150.000000	
71.492481	152.000000	
71.512202	212.000000	
71.531924	171.000000	
71.551645	165.000000	
71.571366	181.000000	
71.591088	168.000000	
71.610809	187.000000	
71.630531	206.000000	
71.650252	223.000000	
71.669973	260.000000	
71.689695	242.000000	
71.709416	313.000000	
71.729137	338.000000	
71.748859	371.000000	
71.768580	353.000000	
71.788301	418.000000	
71.808023	373.000000	
71.827744	412.000000	
71.847466	397.000000	
71.867187	407.000000	
71.886908	438.000000	
71.906630	380.000000	
71.926351	347.000000	
71.946072	348.000000	
71.965794	326.000000	
71.985515	296.000000	
72.005236	304.000000	
72.024958	295.000000	
72.044679	290.000000	
72.064401	250.000000	
72.084122	233.000000	
72.103843	225.000000	
72.123565	178.000000	
72.143286	174.000000	
72.163007	185.000000	
72.182729	185.000000	
72.202450	181.000000	
72.222171	174.000000	
72.241893	175.000000	
72.261614	132.000000	
72.281336	154.000000	
72.301057	176.000000	
72.320778	136.000000	
72.340500	142.000000	
72.360221	158.000000	
72.379942	115.000000	
72.399664	144.000000	
72.419385	162.000000	
72.439106	141.000000	
72.458828	155.000000	
72.478549	152.000000	
72.498271	139.000000	
72.517992	168.000000	
72.537713	147.000000	
72.557435	166.000000	
72.577156	159.000000	
72.596877	117.000000	
72.616599	135.000000	
72.636320	170.000000	
72.656041	145.000000	
72.675763	130.000000	
72.695484	159.000000	
72.715206	140.000000	
72.734927	147.000000	
72.754648	162.000000	
72.774370	160.000000	
72.794091	143.000000	
72.813812	159.000000	
72.833534	148.000000	
72.853255	138.000000	
72.872976	146.000000	
72.892698	149.000000	
72.912419	143.000000	
72.932141	137.000000	
72.951862	143.000000	
72.971583	123.000000	
72.991305	151.000000	
73.011026	147.000000	
73.030747	144.000000	
73.050469	139.000000	
73.070190	148.000000	
73.089911	118.000000	
73.109633	146.000000	
73.129354	150.000000	
73.149076	149.000000	
73.168797	134.000000	
73.188518	138.000000	
73.208240	137.000000	
73.227961	138.000000	
73.247682	137.000000	
73.267404	151.000000	
73.287125	167.000000	
73.306846	135.000000	
73.326568	148.000000	
73.346289	131.000000	
73.366011	144.000000	
73.385732	140.000000	
73.405453	157.000000	
73.425175	158.000000	
73.444896	151.000000	
73.464617	142.000000	
73.484339	156.000000	
73.504060	143.000000	
73.523781	147.000000	
73.543503	158.000000	
73.563224	140.000000	
73.582946	138.000000	
73.602667	163.000000	
73.622388	152.000000	
73.642110	151.000000	
73.661831	146.000000	
73.681552	132.000000	
73.701274	144.000000	
73.720995	145.000000	
73.740716	150.000000	
73.760438	171.000000	
73.780159	147.000000	
73.799881	175.000000	
73.819602	173.000000	
73.839323	137.000000	
73.859045	159.000000	
73.878766	164.000000	
73.898487	172.000000	
73.918209	192.000000	
73.937930	143.000000	
73.957651	167.000000	
73.977373	200.000000	
73.997094	194.000000	
74.016816	235.000000	
74.036537	226.000000	
74.056258	229.000000	
74.075980	264.000000	
74.095701	264.000000	
74.115422	255.000000	
74.135144	253.000000	
74.154865	300.000000	
74.174586	295.000000	
74.194308	313.000000	
74.214029	294.000000	
74.233751	291.000000	
74.253472	305.000000	
74.273193	314.000000	
74.292915	297.000000	
74.312636	311.000000	
74.332357	295.000000	
74.352079	261.000000	
74.371800	254.000000	
74.391521	247.000000	
74.411243	263.000000	
74.430964	247.000000	
74.450686	279.000000	
74.470407	259.000000	
74.490128	275.000000	
74.509850	302.000000	
74.529571	308.000000	
74.549292	290.000000	
74.569014	309.000000	
74.588735	353.000000	
74.608456	317.000000	
74.628178	327.000000	
74.647899	267.000000	
74.667621	323.000000	
74.687342	274.000000	
74.707063	296.000000	
74.726785	283.000000	
74.746506	260.000000	
74.766227	265.000000	
74.785949	276.000000	
74.805670	258.000000	
74.825391	266.000000	
74.845113	227.000000	
74.864834	230.000000	
74.884556	228.000000	
74.904277	234.000000	
74.923998	231.000000	
74.943720	203.000000	
74.963441	197.000000	
74.983162	181.000000	
75.002884	183.000000	
75.022605	171.000000	
75.042326	176.000000	
75.062048	172.000000	
75.081769	191.000000	
75.101491	184.000000	
75.121212	154.000000	
75.140933	177.000000	
75.160655	170.000000	
75.180376	157.000000	
75.200097	168.000000	
75.219819	176.000000	
75.239540	181.000000	
75.259261	176.000000	
75.278983	169.000000	
75.298704	167.000000	
75.318426	183.000000	
75.338147	193.000000	
75.357868	192.000000	
75.377590	165.000000	
75.397311	222.000000	
75.417032	181.000000	
75.436754	177.000000	
75.456475	176.000000	
75.476196	168.000000	
75.495918	182.000000	
75.515639	208.000000	
75.535361	150.000000	
75.555082	175.000000	
75.574803	159.000000	
75.594525	162.000000	
75.614246	161.000000	
75.633967	146.000000	
75.653689	145.000000	
75.673410	158.000000	
75.693131	153.000000	
75.712853	150.000000	
75.732574	135.000000	
75.752296	141.000000	
75.772017	160.000000	
75.791738	133.000000	
75.811460	133.000000	
75.831181	124.000000	
75.850902	148.000000	
75.870624	150.000000	
75.890345	153.000000	
75.910066	169.000000	
75.929788	135.000000	
75.949509	148.000000	
75.969231	159.000000	
75.988952	137.000000	
76.008673	147.000000	
76.028395	155.000000	
76.048116	143.000000	
76.067837	151.000000	
76.087559	145.000000	
76.107280	139.000000	
76.127001	154.000000	
76.146723	168.000000	
76.166444	158.000000	
76.186166	131.000000	
76.205887	170.000000	
76.225608	137.000000	
76.245330	131.000000	
76.265051	139.000000	
76.284772	143.000000	
76.304494	169.000000	
76.324215	140.000000	
76.343936	142.000000	
76.363658	138.000000	
76.383379	146.000000	
76.403101	116.000000	
76.422822	142.000000	
76.442543	132.000000	
76.462265	173.000000	
76.481986	128.000000	
76.501707	130.000000	
76.521429	153.000000	
76.541150	125.000000	
76.560871	172.000000	
76.580593	143.000000	
76.600314	119.000000	
76.620036	134.000000	
76.639757	141.000000	
76.659478	138.000000	
76.679200	152.000000	
76.698921	154.000000	
76.718642	148.000000	
76.738364	156.000000	
76.758085	147.000000	
76.777806	153.000000	
76.797528	132.000000	
76.817249	151.000000	
76.836971	144.000000	
76.856692	150.000000	
76.876413	132.000000	
76.896135	145.000000	
76.915856	121.000000	
76.935577	136.000000	
76.955299	158.000000	
76.975020	198.000000	
76.994741	157.000000	
77.014463	162.000000	
77.034184	127.000000	
77.053906	146.000000	
77.073627	139.000000	
77.093348	153.000000	
77.113070	144.000000	
77.132791	136.000000	
77.152512	146.000000	
77.172234	163.000000	
77.191955	141.000000	
77.211676	131.000000	
77.231398	158.000000	
77.251119	158.000000	
77.270841	168.000000	
77.290562	151.000000	
77.310283	136.000000	
77.330005	149.000000	
77.349726	164.000000	
77.369447	165.000000	
77.389169	161.000000	
77.408890	173.000000	
77.428612	152.000000	
77.448333	155.000000	
77.468054	157.000000	
77.487776	155.000000	
77.507497	155.000000	
77.527218	169.000000	
77.546940	168.000000	
77.566661	141.000000	
77.586382	166.000000	
77.606104	174.000000	
77.625825	164.000000	
77.645547	122.000000	
77.665268	135.000000	
77.684989	151.000000	
77.704711	153.000000	
77.724432	151.000000	
77.744153	143.000000	
77.763875	141.000000	
77.783596	139.000000	
77.803317	137.000000	
77.823039	150.000000	
77.842760	161.000000	
77.862482	153.000000	
77.882203	164.000000	
77.901924	152.000000	
77.921646	156.000000	
77.941367	164.000000	
77.961088	154.000000	
77.980810	159.000000	
78.000531	131.000000	
78.020252	125.000000	
78.039974	129.000000	
78.059695	126.000000	
78.079417	160.000000	
78.099138	145.000000	
78.118859	160.000000	
78.138581	165.000000	
78.158302	141.000000	
78.178023	142.000000	
78.197745	155.000000	
78.217466	132.000000	
78.237187	164.000000	
78.256909	163.000000	
78.276630	142.000000	
78.296352	148.000000	
78.316073	153.000000	
78.335794	133.000000	
78.355516	167.000000	
78.375237	147.000000	
78.394958	190.000000	
78.414680	132.000000	
78.434401	148.000000	
78.454122	181.000000	
78.473844	154.000000	
78.493565	170.000000	
78.513287	164.000000	
78.533008	162.000000	
78.552729	183.000000	
78.572451	197.000000	
78.592172	164.000000	
78.611893	195.000000	
78.631615	202.000000	
78.651336	180.000000	
78.671057	196.000000	
78.690779	197.000000	
78.710500	182.000000	
78.730222	173.000000	
78.749943	188.000000	
78.769664	162.000000	
78.789386	240.000000	
78.809107	190.000000	
78.828828	198.000000	
78.848550	197.000000	
78.868271	218.000000	
78.887992	232.000000	
78.907714	223.000000	
78.927435	256.000000	
78.947157	263.000000	
78.966878	337.000000	
78.986599	319.000000	
79.006321	361.000000	
79.026042	356.000000	
79.045763	422.000000	
79.065485	448.000000	
79.085206	459.000000	
79.104927	514.000000	
79.124649	484.000000	
79.144370	514.000000	
79.164092	542.000000	
79.183813	544.000000	
79.203534	592.000000	
79.223256	621.000000	
79.242977	579.000000	
79.262698	515.000000	
79.282420	536.000000	
79.302141	537.000000	
79.321862	517.000000	
79.341584	449.000000	
79.361305	457.000000	
79.381027	461.000000	
79.400748	410.000000	
79.420469	420.000000	
79.440191	380.000000	
79.459912	345.000000	
79.479633	358.000000	
79.499355	344.000000	
79.519076	301.000000	
79.538797	290.000000	
79.558519	264.000000	
79.578240	253.000000	
79.597962	227.000000	
79.617683	206.000000	
79.637404	207.000000	
79.657126	213.000000	
79.676847	170.000000	
79.696568	196.000000	
79.716290	167.000000	
79.736011	162.000000	
79.755732	155.000000	
79.775454	179.000000	
79.795175	163.000000	
79.814897	139.000000	
79.834618	143.000000	
79.854339	156.000000	
79.874061	149.000000	
79.893782	156.000000	
79.913503	154.000000	
79.933225	163.000000	
79.952946	164.000000	
79.972667	149.000000	
79.992389	155.000000	
80.012110	143.000000	
80.031832	126.000000	
80.051553	142.000000	
80.071274	146.000000	
80.090996	138.000000	
80.110717	163.000000	
80.130438	145.000000	
80.150160	153.000000	
80.169881	160.000000	
80.189602	147.000000	
80.209324	146.000000	
80.229045	166.000000	
80.248767	166.000000	
80.268488	145.000000	
80.288209	153.000000	
80.307931	149.000000	
80.327652	167.000000	
80.347373	145.000000	
80.367095	157.000000	
80.386816	137.000000	
80.406537	124.000000	
80.426259	174.000000	
80.445980	163.000000	
80.465702	169.000000	
80.485423	188.000000	
80.505144	154.000000	
80.524866	152.000000	
80.544587	161.000000	
80.564308	158.000000	
80.584030	153.000000	
80.603751	160.000000	
80.623472	167.000000	
80.643194	158.000000	
80.662915	155.000000	
80.682637	153.000000	
80.702358	148.000000	
80.722079	172.000000	
80.741801	145.000000	
80.761522	148.000000	
80.781243	143.000000	
80.800965	162.000000	
80.820686	151.000000	
80.840407	164.000000	
80.860129	154.000000	
80.879850	144.000000	
80.899572	155.000000	
80.919293	157.000000	
80.939014	178.000000	
80.958736	165.000000	
80.978457	165.000000	
80.998178	135.000000	
81.017900	157.000000	
81.037621	156.000000	
81.057342	142.000000	
81.077064	151.000000	
81.096785	135.000000	
81.116507	150.000000	
81.136228	131.000000	
81.155949	153.000000	
81.175671	161.000000	
81.195392	142.000000	
81.215113	149.000000	
81.234835	161.000000	
81.254556	138.000000	
81.274277	170.000000	
81.293999	148.000000	
81.313720	151.000000	
81.333442	137.000000	
81.353163	129.000000	
81.372884	148.000000	
81.392606	134.000000	
81.412327	146.000000	
81.432048	159.000000	
81.451770	155.000000	
81.471491	141.000000	
81.491212	145.000000	
81.510934	153.000000	
81.530655	147.000000	
81.550377	144.000000	
81.570098	142.000000	
81.589819	150.000000	
81.609541	151.000000	
81.629262	157.000000	
81.648983	168.000000	
81.668705	172.000000	
81.688426	158.000000	
81.708147	138.000000	
81.727869	149.000000	
81.747590	163.000000	
81.767312	136.000000	
81.787033	140.000000	
81.806754	138.000000	
81.826476	133.000000	
81.846197	141.000000	
81.865918	148.000000	
81.885640	135.000000	
81.905361	134.000000	
81.925082	137.000000	
81.944804	139.000000	
81.964525	124.000000	
81.984247	170.000000	
82.003968	145.000000	
82.023689	139.000000	
82.043411	148.000000	
82.063132	146.000000	
82.082853	124.000000	
82.102575	150.000000	
82.122296	162.000000	
82.142017	141.000000	
82.161739	159.000000	
82.181460	165.000000	
82.201182	156.000000	
82.220903	141.000000	
82.240624	144.000000	
82.260346	145.000000	
82.280067	147.000000	
82.299788	135.000000	
82.319510	147.000000	
82.339231	168.000000	
82.358952	153.000000	
82.378674	140.000000	
82.398395	150.000000	
82.418117	163.000000	
82.437838	166.000000	
82.457559	155.000000	
82.477281	124.000000	
82.497002	137.000000	
82.516723	125.000000	
82.536445	149.000000	
82.556166	163.000000	
82.575887	162.000000	
82.595609	144.000000	
82.615330	141.000000	
82.635052	147.000000	
82.654773	160.000000	
82.674494	145.000000	
82.694216	169.000000	
82.713937	143.000000	
82.733658	140.000000	
82.753380	164.000000	
82.773101	169.000000	
82.792822	138.000000	
82.812544	155.000000	
82.832265	159.000000	
82.851987	151.000000	
82.871708	161.000000	
82.891429	188.000000	
82.911151	179.000000	
82.930872	158.000000	
82.950593	146.000000	
82.970315	139.000000	
82.990036	168.000000	
83.009757	137.000000	
83.029479	141.000000	
83.049200	166.000000	
83.068922	170.000000	
83.088643	148.000000	
83.108364	146.000000	
83.128086	158.000000	
83.147807	147.000000	
83.167528	169.000000	
83.187250	142.000000	
83.206971	154.000000	
83.226692	140.000000	
83.246414	131.000000	
83.266135	159.000000	
83.285857	143.000000	
83.305578	149.000000	
83.325299	132.000000	
83.345021	150.000000	
83.364742	149.000000	
83.384463	177.000000	
83.404185	155.000000	
83.423906	148.000000	
83.443627	171.000000	
83.463349	146.000000	
83.483070	133.000000	
83.502792	162.000000	
83.522513	149.000000	
83.542234	145.000000	
83.561956	167.000000	
83.581677	129.000000	
83.601398	136.000000	
83.621120	139.000000	
83.640841	120.000000	
83.660562	173.000000	
83.680284	151.000000	
83.700005	162.000000	
83.719727	124.000000	
83.739448	165.000000	
83.759169	120.000000	
83.778891	158.000000	
83.798612	163.000000	
83.818333	147.000000	
83.838055	153.000000	
83.857776	146.000000	
83.877497	164.000000	
83.897219	152.000000	
83.916940	172.000000	
83.936662	170.000000	
83.956383	174.000000	
83.976104	174.000000	
83.995826	170.000000	
84.015547	178.000000	
84.035268	189.000000	
84.054990	178.000000	
84.074711	190.000000	
84.094432	177.000000	
84.114154	203.000000	
84.133875	205.000000	
84.153597	197.000000	
84.173318	223.000000	
84.193039	235.000000	
84.212761	177.000000	
84.232482	213.000000	
84.252203	230.000000	
84.271925	207.000000	
84.291646	206.000000	
84.311367	218.000000	
84.331089	212.000000	
84.350810	185.000000	
84.370532	211.000000	
84.390253	217.000000	
84.409974	197.000000	
84.429696	208.000000	
84.449417	190.000000	
84.469138	226.000000	
84.488860	198.000000	
84.508581	201.000000	
84.528302	190.000000	
84.548024	197.000000	
84.567745	175.000000	
84.587467	190.000000	
84.607188	198.000000	
84.626909	172.000000	
84.646631	187.000000	
84.666352	212.000000	
84.686073	214.000000	
84.705795	199.000000	
84.725516	198.000000	
84.745237	172.000000	
84.764959	227.000000	
84.784680	163.000000	
84.804402	199.000000	
84.824123	204.000000	
84.843844	164.000000	
84.863566	182.000000	
84.883287	183.000000	
84.903008	168.000000	
84.922730	153.000000	
84.942451	184.000000	
84.962172	166.000000	
84.981894	163.000000	
85.001615	162.000000	
85.021337	175.000000	
85.041058	165.000000	
85.060779	169.000000	
85.080501	178.000000	
85.100222	144.000000	
85.119943	174.000000	
85.139665	154.000000	
85.159386	131.000000	
85.179107	152.000000	
85.198829	161.000000	
85.218550	170.000000	
85.238272	157.000000	
85.257993	143.000000	
85.277714	128.000000	
85.297436	172.000000	
85.317157	146.000000	
85.336878	165.000000	
85.356600	141.000000	
85.376321	141.000000	
85.396042	159.000000	
85.415764	154.000000	
85.435485	142.000000	
85.455207	165.000000	
85.474928	172.000000	
85.494649	153.000000	
85.514371	163.000000	
85.534092	139.000000	
85.553813	169.000000	
85.573535	148.000000	
85.593256	160.000000	
85.612977	151.000000	
85.632699	169.000000	
85.652420	129.000000	
85.672142	136.000000	
85.691863	141.000000	
85.711584	149.000000	
85.731306	173.000000	
85.751027	148.000000	
85.770748	147.000000	
85.790470	148.000000	
85.810191	151.000000	
85.829912	139.000000	
85.849634	152.000000	
85.869355	151.000000	
85.889077	123.000000	
85.908798	147.000000	
85.928519	140.000000	
85.948241	147.000000	
85.967962	139.000000	
85.987683	150.000000	
86.007405	134.000000	
86.027126	133.000000	
86.046848	154.000000	
86.066569	155.000000	
86.086290	144.000000	
86.106012	153.000000	
86.125733	146.000000	
86.145454	136.000000	
86.165176	157.000000	
86.184897	145.000000	
86.204618	150.000000	
86.224340	144.000000	
86.244061	168.000000	
86.263783	123.000000	
86.283504	161.000000	
86.303225	166.000000	
86.322947	152.000000	
86.342668	147.000000	
86.362389	164.000000	
86.382111	141.000000	
86.401832	145.000000	
86.421553	149.000000	
86.441275	138.000000	
86.460996	155.000000	
86.480718	143.000000	
86.500439	160.000000	
86.520160	167.000000	
86.539882	154.000000	
86.559603	161.000000	
86.579324	161.000000	
86.599046	136.000000	
86.618767	156.000000	
86.638488	154.000000	
86.658210	146.000000	
86.677931	152.000000	
86.697653	167.000000	
86.717374	169.000000	
86.737095	162.000000	
86.756817	185.000000	
86.776538	144.000000	
86.796259	137.000000	
86.815981	134.000000	
86.835702	155.000000	
86.855423	164.000000	
86.875145	169.000000	
86.894866	155.000000	
86.914588	181.000000	
86.934309	172.000000	
86.954030	167.000000	
86.973752	162.000000	
86.993473	156.000000	
87.013194	132.000000	
87.032916	156.000000	
87.052637	165.000000	
87.072358	167.000000	
87.092080	160.000000	
87.111801	169.000000	
87.131523	171.000000	
87.151244	155.000000	
87.170965	153.000000	
87.190687	134.000000	
87.210408	154.000000	
87.230129	149.000000	
87.249851	166.000000	
87.269572	151.000000	
87.289293	176.000000	
87.309015	150.000000	
87.328736	152.000000	
87.348458	152.000000	
87.368179	162.000000	
87.387900	150.000000	
87.407622	167.000000	
87.427343	157.000000	
87.447064	136.000000	
87.466786	166.000000	
87.486507	152.000000	
87.506228	141.000000	
87.525950	157.000000	
87.545671	134.000000	
87.565393	144.000000	
87.585114	138.000000	
87.604835	149.000000	
87.624557	161.000000	
87.644278	168.000000	
87.663999	171.000000	
87.683721	128.000000	
87.703442	143.000000	
87.723163	140.000000	
87.742885	158.000000	
87.762606	158.000000	
87.782328	160.000000	
87.802049	158.000000	
87.821770	139.000000	
87.841492	176.000000	
87.861213	159.000000	
87.880934	162.000000	
87.900656	165.000000	
87.920377	172.000000	
87.940098	166.000000	
87.959820	180.000000	
87.979541	151.000000	
87.999263	171.000000	
88.018984	161.000000	
88.038705	159.000000	
88.058427	183.000000	
88.078148	174.000000	
88.097869	186.000000	
88.117591	185.000000	
88.137312	176.000000	
88.157033	202.000000	
88.176755	197.000000	
88.196476	176.000000	
88.216198	222.000000	
88.235919	210.000000	
88.255640	219.000000	
88.275362	234.000000	
88.295083	234.000000	
88.314804	234.000000	
88.334526	220.000000	
88.354247	233.000000	
88.373968	256.000000	
88.393690	251.000000	
88.413411	218.000000	
88.433133	244.000000	
88.452854	238.000000	
88.472575	196.000000	
88.492297	195.000000	
88.512018	221.000000	
88.531739	236.000000	
88.551461	212.000000	
88.571182	200.000000	
88.590903	197.000000	
88.610625	216.000000	
88.630346	181.000000	
88.650068	176.000000	
88.669789	198.000000	
88.689510	191.000000	
88.709232	186.000000	
88.728953	166.000000	
88.748674	198.000000	
88.768396	177.000000	
88.788117	154.000000	
88.807838	160.000000	
88.827560	156.000000	
88.847281	162.000000	
88.867003	126.000000	
88.886724	155.000000	
88.906445	155.000000	
88.926167	144.000000	
88.945888	142.000000	
88.965609	165.000000	
88.985331	140.000000	
89.005052	147.000000	
89.024773	138.000000	
89.044495	163.000000	
89.064216	169.000000	
89.083938	150.000000	
89.103659	125.000000	
89.123380	140.000000	
89.143102	147.000000	
89.162823	140.000000	
89.182544	154.000000	
89.202266	147.000000	
89.221987	156.000000	
89.241708	142.000000	
89.261430	157.000000	
89.281151	151.000000	
89.300873	154.000000	
89.320594	159.000000	
89.340315	128.000000	
89.360037	150.000000	
89.379758	153.000000	
89.399479	188.000000	
89.419201	134.000000	
89.438922	157.000000	
89.458643	141.000000	
89.478365	156.000000	
89.498086	157.000000	
89.517808	162.000000	
89.537529	173.000000	
89.557250	170.000000	
89.576972	159.000000	
89.596693	170.000000	
89.616414	182.000000	
89.636136	181.000000	
89.655857	163.000000	
89.675578	171.000000	
89.695300	177.000000	
89.715021	202.000000	
89.734743	164.000000	
89.754464	215.000000	
89.774185	218.000000	
89.793907	243.000000	
89.813628	234.000000	
89.833349	217.000000	
89.853071	251.000000	
89.872792	221.000000	
89.892513	276.000000	
89.912235	271.000000	
89.931956	255.000000	
89.951678	291.000000	
89.971399	275.000000	
89.991120	221.000000	
