?
20.0     8
20.01972 8
20.03944 8
20.05916 6
20.07888 5
20.09860 3
20.11832 1
20.13805 0
20.15777 0
20.17749 2
20.19721 5
20.21693 7
20.23665 7
20.25637 6
20.27609 4
20.29582 1
20.31554 1
20.33526 4
20.35498 6
20.37470 10
20.39442 11
20.41414 10
20.43387 7
20.45359 4
20.47331 6
20.49303 6
20.51275 6
20.53247 7
20.55219 10
20.57192 11
20.59164 13
20.61136 13
20.63108 13
20.65080 11
20.67052 10
20.69024 6
20.70996 7
20.72969 6
20.74941 4
20.76913 5
20.78885 5
20.80857 7
20.82829 8
20.84801 8
20.86774 6
20.88746 2
20.90718 2
20.92690 6
20.94662 9
20.96634 13
20.98606 13
21.00578 13
21.02551 9
21.04523 5
21.06495 3
21.08467 0
21.10439 1
21.12411 3
21.14383 3
21.16356 5
21.18328 5
21.20300 5
21.22272 4
21.24244 5
21.26216 7
21.28188 8
21.30161 5
21.32133 8
21.34105 8
21.36077 10
21.38049 8
21.40021 10
21.41993 10
21.43965 7
21.45938 4
21.47910 11
21.49882 14
21.51854 14
21.53826 13
21.55798 14
21.57770 11
21.59743 8
21.61715 7
21.63687 7
21.65659 6
21.67631 3
21.69603 1
21.71575 2
21.73547 2
21.75520 7
21.77492 13
21.79464 18
21.81436 18
21.83408 18
21.85380 14
21.87352 9
21.89325 3
21.91297 0
21.93269 4
21.95241 9
21.97213 11
21.99185 13
22.01158 17
22.03130 16
22.05102 14
22.07074 10
22.09046 11
22.11018 10
22.12990 12
22.14963 11
22.16935 13
22.18907 9
22.20879 8
22.22851 8
22.24823 6
22.26795 7
22.28767 11
22.3074  9
22.32712 9
22.34684 5
22.36656 5
22.38628 9
22.40600 11
22.42572 12
22.44545 10
22.46517 9
22.48489 8
22.50461 6
22.52433 5
22.54405 11
22.56377 15
22.58349 19
22.60322 15
22.62294 16
22.64266 15
22.66238 12
22.68210 8
22.70182 10
22.72154 10
22.74127 8
22.76099 1
22.78071 3
22.80043 5
22.82015 3
22.83987 7
22.85959 12
22.87932 16
22.89904 16
22.91876 11
22.93848 16
22.95820 17
22.97792 16
22.99764 15
23.01736 14
23.03709 14
23.05681 12
23.07653 9
23.09625 14
23.11597 16
23.13569 16
23.15541 12
23.17514 10
23.19486 8
23.21458 4
23.23430 8
23.25402 12
23.27374 13
23.29346 12
23.31318 9
23.33291 10
23.35263 9
23.37235 11
23.39207 21
23.41179 23
23.43151 22
23.45123 16
23.47096 13
23.49068 12
23.51040 8
23.53012 8
23.54984 11
23.56956 15
23.58928 19
23.60900 17
23.62873 19
23.64845 13
23.66817 7
23.68789 3
23.70761 2
23.72733 11
23.74705 16
23.76678 26
23.78650 29
23.80622 31
23.82594 37
23.84566 40
23.86538 46
23.88510 55
23.90483 63
23.92455 79
23.94427 85
23.96399 88
23.98371 91
24.00343 95
24.02315 99
24.04287 106
24.06260 115
24.08232 122
24.10204 117
24.12176 97
24.14148 79
24.16120 61
24.18092 43
24.20065 33
24.22037 28
24.24009 31
24.25981 27
24.27953 23
24.29925 22
24.31897 21
24.33869 19
24.35842 15
24.37814 12
24.39786 16
24.41758 18
24.43730 16
24.45702 16
24.47674 22
24.49647 26
24.51619 24
24.53591 20
24.55563 15
24.57535 13
24.59507 8
24.61479 9
24.63452 12
24.65424 19
24.67396 25
24.69368 29
24.71340 23
24.73312 22
24.75285 21
24.77257 17
24.79229 12
24.81201 15
24.83173 18
24.85145 24
24.87117 19
24.89089 20
24.91062 21
24.93034 21
24.95006 18
24.96978 19
24.98950 22
25.00922 23
25.02894 18
25.04867 12
25.06839 12
25.08811 12
25.10783 16
25.12755 20
25.14727 25
25.16699 24
25.18671 20
25.20644 15
25.22616 17
25.24588 16
25.26560 16
25.28532 16
25.30504 18
25.32476 19
25.34449 15
25.36421 17
25.38393 17
25.40365 15
25.42337 7
25.44309 9
25.46281 14
25.48254 18
25.50226 16
25.52198 16
25.54170 12
25.56142 12
25.58114 11
25.60086 15
25.62058 16
25.64031 19
25.66003 16
25.67975 19
25.69947 16
25.71919 17
25.73891 18
25.75863 16
25.77836 14
25.79808 12
25.81780 8
25.83752 11
25.85724 10
25.87696 13
25.89668 12
25.91640 15
25.93613 14
25.95585 14
25.97557 11
25.99529 13
26.01501 15
26.03473 15
26.05445 11
26.07418 12
26.09390 8
26.11362 7
26.13334 4
26.15306 3
26.17278 4
26.19250 11
26.21223 15
26.23195 15
26.25167 16
26.27139 14
26.29111 16
26.31083 16
26.33055 19
26.35027 28
26.37000 27
26.38972 23
26.40944 19
26.42916 12
26.44888 16
26.46860 15
26.48832 18
26.50805 17
26.52777 17
26.54749 17
26.56721 15
26.58693 15
26.60665 20
26.62637 18
26.64609 18
26.66582 14
26.68554 12
26.70526 15
26.72498 18
26.74470 23
26.76442 24
26.78414 19
26.80387 13
26.82359 6
26.84331 0
26.86303 6
26.88275 14
26.90247 17
26.92219 19
26.94192 17
26.96164 16
26.98136 12
27.00108 13
27.02080 16
27.04052 17
27.06024 16
27.07996 16
27.09969 14
27.11941 16
27.13913 12
27.15885 11
27.17857 11
27.19829 8
27.21801 10
27.23774 11
27.25746 9
27.27718 13
27.29690 18
27.31662 19
27.33634 20
27.35607 13
27.37579 22
27.39551 23
27.41523 24
27.43495 29
27.45467 29
27.47439 20
27.49411 10
27.51384 4
27.53356 6
27.55328 10
27.57300 14
27.59272 16
27.61244 15
27.63216 11
27.65189 10
27.67161 15
27.69133 12
27.71105 17
27.73077 19
27.75049 23
27.77021 22
27.78994 18
27.80966 13
27.82938 11
27.84910 6
27.86882 9
27.88854 13
27.90826 20
27.92798 23
27.94771 21
27.96743 15
27.98715 13
28.00687 15
28.02659 24
28.04631 28
28.06603 35
28.08576 33
28.10548 25
28.12520 17
28.14492 10
28.16464 11
28.18436 15
28.20408 15
28.22380 21
28.24353 22
28.26325 18
28.28297 18
28.30269 16
28.32241 12
28.34213 13
28.36185 15
28.38158 16
28.4013  16
28.42102 13
28.44074 10
28.46046 8
28.48018 7
28.49990 10
28.51963 17
28.53935 20
28.55907 23
28.57879 21
28.59851 15
28.61823 15
28.63795 18
28.65767 22
28.67740 23
28.69712 22
28.71684 23
28.73656 15
28.75628 11
28.77600 6
28.79572 12
28.81545 18
28.83517 17
28.85489 18
28.87461 12
28.89433 8
28.91405 10
28.93377 5
28.95349 15
28.97322 20
28.99294 21
29.01266 19
29.03238 14
29.05210 12
29.07182 10
29.09154 3
29.11127 5
29.13099 8
29.15071 11
29.17043 18
29.19015 23
29.20987 24
29.22959 21
29.24931 12
29.26904 11
29.28876 11
29.30848 10
29.32820 14
29.34792 13
29.36764 9
29.38736 5
29.40709 2
29.42681 6
29.44653 10
29.46625 15
29.48597 16
29.50569 16
29.52541 10
29.54514 7
29.56486 8
29.58458 6
29.60430 11
29.62402 18
29.64374 19
29.66346 21
29.68318 19
29.70291 19
29.72263 21
29.74235 14
29.76207 14
29.78179 17
29.80151 11
29.82123 15
29.84096 18
29.86068 26
29.88040 34
29.90012 31
29.91984 32
29.93956 28
29.95929 26
29.97901 35
29.99873 44
30.01845 54
30.03817 64
30.05789 66
30.07761 67
30.09734 58
30.11706 56
30.13678 56
30.15650 52
30.17622 48
30.19594 42
30.21566 33
30.23538 22
30.25511 13
30.27483 8
30.29455 12
30.31427 15
30.33399 19
30.35371 19
30.37343 15
30.39316 9
30.41288 5
30.43260 0
30.45232 4
30.47204 11
30.49176 17
30.51148 21
30.53120 20
30.55093 16
30.57065 9
30.59037 2
30.61009 0
30.62981 6
30.64953 11
30.66925 12
30.68898 12
30.7087  10
30.72842 7
30.74814 6
30.76786 9
30.78758 14
30.80730 15
30.82702 15
30.84675 11
30.86647 11
30.88619 7
30.90591 7
30.92563 9
30.94535 6
30.96507 7
30.9848  6
31.00452 8
31.02424 12
31.04396 12
31.06368 15
31.08340 12
31.10312 9
31.12285 9
31.14257 8
31.16229 10
31.18201 13
31.20173 14
31.22145 14
31.24117 9
31.26089 11
31.28062 10
31.30034 10
31.32006 11
31.33978 11
31.35950 12
31.37922 12
31.39894 9
31.41867 9
31.43839 1
31.45811 6
31.47783 7
31.49755 6
31.51727 12
31.53699 16
31.55671 18
31.57644 17
31.59616 11
31.61588 11
31.63560 6
31.65532 7
31.67504 7
31.69476 9
31.71449 10
31.73421 10
31.75393 8
31.77365 5
31.79337 3
31.81309 2
31.83281 3
31.85254 7
31.87226 10
31.89198 16
31.91170 19
31.93142 17
31.95114 12
31.97086 6
31.99058 6
32.01031 6
32.03003 9
32.04975 11
32.06947 10
32.08919 10
32.10891 8
32.12863 7
32.14836 10
32.16808 12
32.18780 15
32.20752 15
32.22724 12
32.24696 13
32.26668 8
32.28641 7
32.30613 6
32.32585 5
32.34557 3
32.36529 3
32.38501 0
32.40473 0
32.42446 4
32.44418 10
32.46390 15
32.48362 17
32.50334 16
32.52306 14
32.54278 6
32.56250 5
32.58223 8
32.60195 8
32.62167 13
32.64139 14
32.66111 15
32.68083 18
32.70055 13
32.72028 15
32.74000 13
32.75972 14
32.77944 18
32.79916 33
32.81888 61
32.83860 95
32.85833 131
32.87805 168
32.89777 182
32.91749 197
32.93721 211
32.95693 225
32.97665 249
32.99638 279
33.01610 324
33.03582 369
33.05554 396
33.07526 417
33.09498 413
33.11470 375
33.13443 313
33.15415 237
33.17387 163
33.19359 105
33.21331 59
33.23303 33
33.25275 23
33.27248 22
33.29219 18
33.31192 17
33.33164 19
33.35136 23
33.37108 19
33.39080 17
33.41052 17
33.43024 13
33.44997 6
33.46969 6
33.48941 9
33.50913 8
33.52885 7
33.54857 7
33.56829 7
33.58802 8
33.60774 8
33.62746 14
33.64718 16
33.66690 16
33.68662 14
33.70634 9
33.72607 8
33.74579 3
33.76551 4
33.78523 4
33.80495 8
33.82467 9
33.84439 5
33.86412 8
33.88384 8
33.90356 7
33.92328 14
33.94300 18
33.96272 19
33.98244 17
34.00217 13
34.02188 11
34.04161 5
34.06133 6
34.08105 9
34.10077 8
34.12049 9
34.14021 9
34.15993 11
34.17966 9
34.19938 7
34.21910 6
34.23882 2
34.25854 4
34.27826 7
34.29798 11
34.31771 13
34.33743 14
34.35715 14
34.37687 10
34.39659 6
34.41631 7
34.43603 4
34.45576 3
34.47548 5
34.49520 7
34.51492 10
34.53464 10
34.55436 7
34.57408 6
34.59381 8
34.61353 5
34.63325 12
34.65297 15
34.67269 15
34.69241 13
34.71213 7
34.73186 3
34.75157 3
34.77130 0
34.79102 1
34.81074 1
34.83046 0
34.85018 3
34.86990 9
34.88962 14
34.90935 19
34.92907 20
34.94879 17
34.96851 10
34.98823 5
35.00795 7
35.02767 12
35.04740 17
35.06712 16
35.08684 20
35.10656 20
35.12628 21
35.14600 26
35.16573 42
35.18545 50
35.20517 67
35.22489 87
35.24461 111
35.26433 139
35.28405 180
35.30378 223
35.32350 275
35.34322 315
35.36294 361
35.38266 401
35.40238 433
35.42210 484
35.44183 522
35.46155 543
35.48127 557
35.50099 560
35.52071 539
35.54043 496
35.56015 448
35.57988 388
35.59959 317
35.61932 242
35.63904 176
35.65876 131
35.67848 89
35.69820 63
35.71792 52
35.73764 32
35.75737 30
35.77709 23
35.79681 18
35.81653 17
35.83625 16
35.85597 23
35.87569 24
35.89542 24
35.91514 22
35.93486 18
35.95458 15
35.97430 13
35.99402 12
36.01374 12
36.03347 12
36.05319 14
36.07291 17
36.09263 18
36.11235 19
36.13207 23
36.15179 22
36.17152 19
36.19124 18
36.21096 13
36.23068 11
36.25040 6
36.27012 2
36.28984 2
36.30957 2
36.32928 0
36.34901 6
36.36873 10
36.38845 13
36.40817 11
36.42789 10
36.44761 8
36.46733 5
36.48706 6
36.50678 11
36.52650 13
36.54622 12
36.56594 12
36.58566 8
36.60538 9
36.62511 8
36.64483 12
36.66455 16
36.68427 15
36.70399 19
36.72371 28
36.74343 29
36.76316 40
36.78288 54
36.80260 84
36.82232 114
36.84204 148
36.86176 201
36.88148 256
36.90121 313
36.92092 391
36.94065 481
36.96037 585
36.98009 707
36.99981 836
37.01953 941
37.03926 1052
37.05897 1130
37.07870 1200
37.09842 1227
37.11814 1238
37.13786 1204
37.15758 1115
37.17730 977
37.19702 844
37.21675 682
37.23647 555
37.25619 430
37.27591 339
37.29563 248
37.31535 180
37.33507 123
37.35480 81
37.37452 49
37.39424 39
37.41396 25
37.43368 17
37.45340 16
37.47312 14
37.49285 8
37.51257 7
37.53229 6
37.55201 7
37.57173 8
37.59145 13
37.61117 14
37.63090 12
37.65062 12
37.67034 12
37.69006 8
37.70978 4
37.72950 2
37.74922 6
37.76894 8
37.78867 12
37.80839 14
37.82811 17
37.84783 14
37.86755 11
37.88728 6
37.90699 6
37.92672 5
37.94644 7
37.96616 9
37.98588 11
38.00560 8
38.02532 7
38.04504 5
38.06477 5
38.08449 6
38.10421 9
38.12393 11
38.14365 9
38.16337 9
38.18309 9
38.20282 9
38.22254 7
38.24226 8
38.26198 5
38.28170 3
38.30142 2
38.32114 4
38.34087 7
38.36059 10
38.38031 15
38.40003 17
38.41975 14
38.43947 13
38.45919 10
38.47892 4
38.49863 0
38.51836 3
38.53808 7
38.55780 9
38.57752 12
38.59724 15
38.61697 15
38.63668 16
38.65641 15
38.67613 18
38.69585 13
38.71557 15
38.73529 20
38.75501 27
38.77473 32
38.79446 50
38.81418 69
38.83390 100
38.85362 132
38.87334 169
38.89306 226
38.91278 298
38.93251 381
38.95223 485
38.97195 608
38.99167 738
39.01139 856
39.03111 970
39.05083 1096
39.07056 1202
39.09028 1295
39.11000 1357
39.12972 1378
39.14944 1349
39.16916 1297
39.18888 1218
39.20861 1141
39.22832 1056
39.24805 967
39.26777 842
39.28749 702
39.30721 543
39.32693 388
39.34665 247
39.36637 159
39.38610 106
39.40582 79
39.42554 69
39.44526 78
39.46498 69
39.48470 51
39.50442 39
39.52415 30
39.54387 19
39.56359 15
39.58331 16
39.60303 16
39.62275 20
39.64247 24
39.66220 33
39.68192 31
39.70164 30
39.72136 23
39.74108 17
39.76080 8
39.78052 11
39.80025 14
39.81997 19
39.83969 16
39.85941 14
39.87913 9
39.89885 4
39.91857 0
39.93830 0
39.95801 0
39.97774 2
39.99746 7
40.01718 7
40.03690 10
40.05662 14
40.07634 20
40.09606 23
40.11579 23
40.13551 21
40.15523 17
40.17495 5
40.19467 2
40.21439 3
40.23411 5
40.25384 11
40.27356 16
40.29328 14
40.31300 14
40.33272 12
40.35244 19
40.37216 28
40.39189 36
40.41161 52
40.43133 60
40.45105 72
40.47077 97
40.49049 119
40.51022 153
40.52994 191
40.54966 228
40.56938 256
40.58910 282
40.60882 311
40.62854 342
40.64827 355
40.66799 386
40.68771 413
40.70743 430
40.72715 427
40.74687 415
40.76659 385
40.78632 336
40.80603 274
40.82576 225
40.84548 177
40.86520 143
40.88492 116
40.90464 98
40.92436 84
40.94408 69
40.96381 61
40.98353 49
41.00325 33
41.02297 29
41.04269 23
41.06241 17
41.08213 9
41.10186 12
41.12158 18
41.14130 19
41.16102 14
41.18074 22
41.20046 24
41.22018 20
41.23991 15
41.25963 18
41.27935 20
41.29907 18
41.31879 17
41.33851 23
41.35823 20
41.37796 16
41.39768 13
41.4174  12
41.43712 11
41.45684 8
41.47656 12
41.49628 13
41.51601 8
41.53572 9
41.55545 10
41.57517 12
41.59489 12
41.61461 10
41.63433 13
41.65405 12
41.67377 5
41.69350 7
41.71322 8
41.73294 11
41.75266 13
41.77238 15
41.79210 14
41.81182 10
41.83155 8
41.85127 10
41.87099 9
41.89071 10
41.91043 12
41.93015 13
41.94987 10
41.96960 5
41.98932 6
42.00904 5
42.02876 5
42.04848 10
42.06820 15
42.08792 21
42.10765 20
42.12737 20
42.14709 19
42.16681 13
42.18653 12
42.20625 7
42.22597 9
42.24570 12
42.26541 15
42.28514 19
42.30486 19
42.32458 22
42.34430 23
42.36402 20
42.38374 20
42.40346 21
42.42319 23
42.44291 19
42.46263 19
42.48235 24
42.50207 24
42.52179 18
42.54151 16
42.56124 18
42.58096 17
42.60068 13
42.62040 13
42.64012 11
42.65984 8
42.67956 0
42.69929 1
42.71901 6
42.73873 12
42.75845 20
42.77817 26
42.79789 27
42.81761 26
42.83734 21
42.85706 15
42.87678 16
42.89650 13
42.91622 14
42.93594 18
42.95566 24
42.97539 34
42.99511 39
43.01483 45
43.03455 55
43.05427 55
43.07399 62
43.09371 66
43.11343 63
43.13316 62
43.15288 54
43.17260 51
43.19232 51
43.21204 56
43.23176 66
43.25148 72
43.27121 79
43.29093 82
43.31065 85
43.33037 97
43.35009 113
43.36981 147
43.38953 174
43.40926 198
43.42898 234
43.44870 255
43.46842 255
43.48814 247
43.50786 246
43.52758 244
43.54731 226
43.56703 204
43.58675 208
43.60647 201
43.62619 174
43.64591 150
43.66563 142
43.68536 126
43.70508 98
43.7248  70
43.74452 58
43.76424 46
43.78396 31
43.80368 21
43.82341 27
43.84312 32
43.86285 31
43.88257 31
43.90229 34
43.92201 36
43.94173 27
43.96145 19
43.98117 21
44.0009  18
44.02062 13
44.04034 12
44.06006 13
44.07978 17
44.09950 13
44.11922 15
44.13895 21
44.15867 23
44.17839 22
44.19811 17
44.21783 17
44.23755 22
44.25727 21
44.277   23
44.29672 28
44.31644 28
44.33616 22
44.35588 12
44.37560 10
44.39532 10
44.41505 10
44.43477 7
44.45449 10
44.47421 11
44.49393 12
44.51365 12
44.53337 14
44.55310 15
44.57281 13
44.59254 12
44.61226 11
44.63198 12
44.65170 15
44.67142 16
44.69114 16
44.71086 16
44.73059 15
44.75031 13
44.77003 13
44.78975 13
44.80947 13
44.82919 14
44.84891 15
44.86864 15
44.88836 11
44.90808 10
44.92780 14
44.94752 13
44.96724 12
44.98696 8
45.00669 13
45.02641 13
45.04613 7
45.06585 12
45.08557 17
45.10529 19
45.12501 17
45.14474 13
45.16446 15
45.18418 10
45.20390 5
45.22362 10
45.24334 13
45.26306 15
45.28279 13
45.30250 12
45.32223 13
45.34195 14
45.36167 16
45.38139 19
45.40111 18
45.42083 15
45.44055 9
45.46028 4
45.48000 1
45.49972 3
45.51944 9
45.53916 17
45.55888 20
45.57860 20
45.59833 19
45.61805 16
45.63777 10
45.65749 6
45.67721 5
45.69693 7
45.71666 6
45.73638 8
45.75610 14
45.77582 13
45.79554 13
45.81526 13
45.83498 14
45.85471 20
45.87443 18
45.89415 21
45.91387 23
45.93359 19
45.95331 17
45.97303 10
45.99276 10
46.01248 13
46.0322  12
46.05192 13
46.07164 14
46.09136 18
46.11108 19
46.13081 14
46.15052 14
46.17025 16
46.18997 15
46.20969 12
46.22941 11
46.24913 15
46.26885 17
46.28857 15
46.3083  13
46.32802 16
46.34774 18
46.36746 14
46.38718 11
46.40690 12
46.42662 12
46.44635 10
46.46607 11
46.48579 13
46.50551 13
46.52523 10
46.54495 10
46.56467 13
46.5844  13
46.60412 15
46.62384 15
46.64356 17
46.66328 13
46.68300 13
46.70272 16
46.72245 14
46.74217 12
46.76189 9
46.78161 7
46.80133 10
46.82105 9
46.84077 10
46.8605  12
46.88021 12
46.89994 15
46.91966 11
46.93938 14
46.95910 16
46.97882 17
46.99854 14
47.01826 11
47.03799 11
47.05771 13
47.07743 10
47.09715 10
47.11687 8
47.13659 9
47.15631 10
47.17604 8
47.19576 13
47.21548 17
47.23520 21
47.25492 19
47.27464 19
47.29436 19
47.31409 20
47.33381 16
47.35353 15
47.37325 16
47.39297 20
47.41269 17
47.43241 23
47.45214 25
47.47186 24
47.49158 20
47.51130 12
47.53102 10
47.55074 8
47.57046 6
47.59019 11
47.60990 11
47.62963 13
47.64935 14
47.66907 12
47.68879 11
47.70851 11
47.72823 13
47.74795 14
47.76768 14
47.78740 12
47.80712 14
47.82684 13
47.84656 10
47.86628 10
47.88600 13
47.90573 13
47.92545 14
47.94517 11
47.96489 12
47.98461 9
48.00433 5
48.02405 7
48.04378 12
48.06350 14
48.08322 20
48.10294 21
48.12266 19
48.14238 16
48.16210 14
48.18183 15
48.20155 14
48.22127 10
48.24099 10
48.26071 8
48.28043 5
48.30015 4
48.31988 9
48.3396  17
48.35932 21
48.37904 20
48.39876 16
48.41848 15
48.43821 12
48.45792 9
48.47765 7
48.49737 13
48.51709 16
48.53681 16
48.55653 13
48.57625 18
48.59597 20
48.6157  18
48.63542 13
48.65514 10
48.67486 4
48.69458 7
48.71430 8
48.73402 11
48.75375 10
48.77347 12
48.79319 13
48.81291 14
48.83263 11
48.85235 20
48.87207 22
48.8918  22
48.91152 19
48.93124 19
48.95096 20
48.97068 19
48.99040 16
49.01012 22
49.02985 23
49.04956 23
49.06929 29
49.08901 30
49.10873 35
49.12845 30
49.14817 32
49.1679  38
49.18761 43
49.20734 56
49.22706 78
49.24678 96
49.26650 115
49.28622 123
49.30594 134
49.32566 136
49.34539 131
49.36511 133
49.38483 124
49.40455 108
49.42427 90
49.44399 71
49.46371 52
49.48344 33
49.50316 16
49.52288 17
49.54260 14
49.56232 15
49.58204 17
49.60176 22
49.62149 18
49.64121 17
49.66093 10
49.68065 10
49.70037 9
49.72009 7
49.73981 8
49.75954 8
49.77925 11
49.79898 17
49.81870 20
49.83842 23
49.85814 26
49.87786 22
49.89759 22
49.91730 17
49.93703 19
49.95675 19
49.97647 22
49.99619 24
50.01591 24
50.03563 21
50.05535 18
50.07508 12
50.09480 9
50.11452 6
50.13424 10
50.15396 17
50.17368 23
50.19340 27
50.21313 29
50.23285 29
50.25257 29
50.27229 30
50.29201 28
50.31173 23
50.33145 21
50.35118 16
50.37090 16
50.39062 18
50.41034 19
50.43006 28
50.44978 34
50.46950 35
50.48923 41
50.50894 48
50.52867 52
50.54839 67
50.56811 74
50.58783 84
50.60755 96
50.62727 103
50.64699 109
50.66672 114
50.68644 111
50.70616 114
50.72588 108
50.74560 98
50.76532 93
50.78504 82
50.80477 76
50.82449 73
50.84421 63
50.86393 56
50.88365 52
50.90337 44
50.9231  39
50.94282 28
50.96254 23
50.98226 23
51.00198 18
51.02170 16
51.04142 19
51.06115 22
51.08087 22
51.10059 25
51.12031 21
51.14003 24
51.15975 22
51.17947 17
51.1992  13
51.21892 8
51.23864 8
51.25836 12
51.27808 13
51.29780 19
51.31752 21
51.33725 20
51.35696 18
51.37669 13
51.39641 12
51.41613 9
51.43585 6
51.45557 8
51.47529 6
51.49501 5
51.51474 10
51.53446 12
51.55418 16
51.57390 16
51.59362 13
51.61334 17
51.63306 14
51.65279 10
51.67251 9
51.69223 3
51.71195 6
51.73167 4
51.75139 2
51.77111 12
51.79084 17
51.81056 19
51.83028 21
51.85000 15
51.86972 16
51.88944 13
51.90916 11
51.92889 14
51.94861 14
51.96833 14
51.98805 14
52.00777 10
52.02749 12
52.04721 11
52.06694 10
52.08665 11
52.10638 12
52.12610 14
52.14582 15
52.16554 16
52.18526 16
52.20498 13
52.22470 11
52.24443 8
52.26415 4
52.28387 2
52.30359 3
52.32331 4
52.34303 7
52.36275 8
52.38248 12
52.40220 13
52.42192 14
52.44164 12
52.46136 12
52.48108 12
52.50080 11
52.52053 9
52.54025 8
52.55997 7
52.57969 10
52.59941 7
52.61913 10
52.63885 11
52.65858 9
52.67830 8
52.69802 4
52.71774 4
52.73746 7
52.75718 7
52.77690 12
52.79663 12
52.81634 14
52.83607 15
52.85579 13
52.87551 15
52.89523 16
52.91495 16
52.93467 19
52.95439 17
52.97412 14
52.99384 11
53.01356 12
53.03328 15
53.05300 13
53.07272 16
53.09244 15
53.11217 19
53.13189 18
53.15161 17
53.17133 17
53.19105 19
53.21077 13
53.23049 12
53.25022 9
53.26994 16
53.28966 22
53.30938 24
53.32910 30
53.34882 38
53.36854 39
53.38827 48
53.40799 57
53.42771 66
53.44743 73
53.46715 74
53.48687 73
53.50659 69
53.52632 64
53.54604 62
53.56576 57
53.58548 54
53.60520 50
53.62492 47
53.64465 51
53.66436 48
53.68409 52
53.70381 47
53.72353 47
53.74325 57
53.76297 66
53.78269 78
53.80241 93
53.82214 102
53.84186 114
53.86158 116
53.88130 125
53.90102 136
53.92074 152
53.94046 166
53.96019 171
53.97991 174
53.99963 164
54.01935 144
54.03907 119
54.05879 87
54.07851 68
54.09824 50
54.11796 35
54.13768 26
54.15740 20
54.17712 18
54.19684 18
54.21656 14
54.23629 15
54.25601 13
54.27573 13
54.29545 15
54.31517 16
54.33489 18
54.35461 18
54.37434 16
54.39405 14
54.41378 12
54.43350 10
54.45322 9
54.47294 11
54.49266 13
54.51238 20
54.53210 20
54.55183 21
54.57155 25
54.59127 25
54.61099 19
54.63071 15
54.65043 11
54.67015 18
54.68988 20
54.70960 19
54.72932 23
54.74904 21
54.76876 21
54.78848 21
54.80820 20
54.82793 24
54.84765 26
54.86737 24
54.88709 21
54.90681 14
54.92653 13
54.94625 11
54.96598 7
54.98570 4
55.00542 3
55.02514 6
55.04486 6
55.06458 5
55.08430 9
55.10403 11
55.12374 13
55.14347 14
55.16319 12
55.18291 13
55.20263 15
55.22235 16
55.24207 21
55.26179 19
55.28152 20
55.30124 18
55.32096 14
55.34068 10
55.36040 10
55.38012 8
55.39984 9
55.41957 11
55.43929 19
55.45901 25
55.47873 26
55.49845 26
55.51817 29
55.53789 25
55.55762 18
55.57734 18
55.59706 19
55.61678 15
55.63650 9
55.65622 9
55.67594 9
55.69567 9
55.71539 6
55.73511 10
55.75483 13
55.77455 14
55.79427 15
55.81399 18
55.83372 16
55.85343 17
55.87316 20
55.89288 20
55.91260 20
55.93232 21
55.95204 22
55.97176 24
55.99148 22
56.01121 17
56.03093 19
56.05065 19
56.07037 15
56.09009 16
56.10981 18
56.12953 17
56.14926 16
56.16898 17
56.18870 22
56.20842 23
56.22814 22
56.24786 21
56.26759 21
56.28731 15
56.30703 12
56.32675 9
56.34647 10
56.36619 13
56.38591 21
56.40564 22
56.42536 26
56.44508 25
56.46480 24
56.48452 21
56.50424 23
56.52396 28
56.54369 33
56.56341 35
56.58313 36
56.60285 42
56.62257 51
56.64229 56
56.66201 60
56.68174 67
56.70145 72
56.72118 79
56.74090 87
56.76062 108
56.78034 133
56.80006 164
56.81978 201
56.83950 257
56.85923 313
56.87895 383
56.89867 459
56.91839 543
56.93811 626
56.95783 711
56.97755 800
56.99728 900
57.01700 959
57.03672 1014
57.05644 1018
57.07616 1013
57.09588 990
57.11560 930
57.13533 881
57.15505 814
57.17477 709
57.19449 625
57.21421 535
57.23393 452
57.25365 378
57.27338 305
57.29310 255
57.31282 211
57.33254 179
57.35226 172
57.37198 164
57.39170 152
57.41143 144
57.43114 147
57.45087 154
57.47059 153
57.49031 158
57.51003 152
57.52975 135
57.54947 121
57.56919 98
57.58892 80
57.60864 61
57.62836 41
57.64808 29
57.66780 24
57.68752 19
57.70724 12
57.72697 14
57.74669 13
57.76641 12
57.78613 19
57.80585 18
57.82557 22
57.84529 21
57.86502 21
57.88474 20
57.90446 20
57.92418 16
57.94390 15
57.96362 16
57.98334 20
58.00307 21
58.02279 21
58.04251 15
58.06223 13
58.08195 10
58.10167 9
58.12139 10
58.14112 15
58.16083 20
58.18056 22
58.20028 22
58.22000 21
58.23972 19
58.25944 16
58.27916 15
58.29888 15
58.31861 13
58.33833 12
58.35805 14
58.37777 15
58.39749 14
58.41721 20
58.43693 24
58.45666 23
58.47638 21
58.49610 20
58.51582 19
58.53554 13
58.55526 11
58.57498 13
58.59471 12
58.61443 14
58.63415 18
58.65387 19
58.67359 20
58.69331 19
58.71303 19
58.73276 18
58.75248 13
58.77220 10
58.79192 8
58.81164 6
58.83136 11
58.85108 14
58.87081 13
58.89053 14
58.91025 12
58.92997 6
58.94969 5
58.96941 5
58.98914 8
59.00885 9
59.02858 12
59.04830 17
59.06802 19
59.08774 22
59.10746 24
59.12718 25
59.14690 20
59.16663 15
59.18635 13
59.20607 9
59.22579 11
59.24551 12
59.26523 14
59.28495 16
59.30468 18
59.32440 20
59.34412 20
59.36384 19
59.38356 17
59.40328 13
59.42300 10
59.44273 7
59.46245 11
59.48217 14
59.50189 14
59.52161 15
59.54133 13
59.56105 13
59.58078 5
59.60050 10
59.62022 16
59.63994 16
59.65966 19
59.67938 21
59.69910 18
59.71883 12
59.73854 6
59.75827 10
59.77799 9
59.79771 9
59.81743 12
59.83715 11
59.85687 12
59.87659 15
59.89632 19
59.91604 22
59.93576 23
59.95548 22
59.97520 14
59.99492 8
60.01464 9
60.03437 9
60.05409 12
60.07381 17
60.09353 19
60.11325 19
60.13297 17
60.15269 15
60.17242 14
60.19214 11
60.21186 13
60.23158 14
60.25130 13
60.27102 13
60.29074 12
60.31047 9
60.33018 3
60.34991 4
60.36963 6
60.38935 10
60.40907 9
60.42879 16
60.44852 18
60.46823 18
60.48796 19
60.50768 22
60.52740 18
60.54712 19
60.56684 11
60.58656 11
60.60628 8
60.62601 8
60.64573 10
60.66545 13
60.68517 16
60.70489 16
60.72461 12
60.74433 14
60.76406 16
60.78378 19
60.80350 20
60.82322 23
60.84294 24
60.86266 17
60.88238 13
60.90211 8
60.92183 8
60.94155 9
60.96127 7
60.98099 7
61.00071 11
61.02043 11
61.04016 14
61.05987 10
61.07960 14
61.09932 13
61.11904 9
61.13876 9
61.15848 12
61.17820 13
61.19792 14
61.21765 13
61.23737 17
61.25709 13
61.27681 12
61.29653 14
61.31625 11
61.33597 10
61.35570 12
61.37542 12
61.39514 13
61.41486 9
61.43458 10
61.45430 12
61.47403 15
61.49375 18
61.51347 23
61.53319 22
61.55291 23
61.57263 19
61.59235 16
61.61208 12
61.63180 15
61.65152 13
61.67124 12
61.69096 8
61.71068 11
61.73040 11
61.75013 11
61.76985 11
61.78957 18
61.80929 21
61.82901 25
61.84873 28
61.86845 36
61.88818 38
61.90789 40
61.92762 40
61.94734 48
61.96706 51
61.98678 62
62.00650 72
62.02623 86
62.04594 97
62.06567 100
62.08539 111
62.10511 128
62.12483 150
62.14455 176
62.16427 206
62.18399 232
62.20372 261
62.22344 272
62.24316 287
62.26288 292
62.28260 278
62.30232 270
62.32204 265
62.34177 238
62.36149 221
62.38121 196
62.40093 176
62.42065 153
62.44037 124
62.46009 124
62.47982 111
62.49954 84
62.51926 76
62.53898 74
62.55870 70
62.57842 74
62.59814 80
62.61787 95
62.63758 91
62.65731 92
62.67703 100
62.69675 97
62.71647 86
62.73619 80
62.75591 84
62.77563 78
62.79536 71
62.81508 70
62.83480 63
62.85452 48
62.87424 42
62.89396 39
62.91368 46
62.93341 37
62.95313 36
62.97285 30
62.99257 18
63.01229 17
63.03201 20
63.05173 23
63.07146 30
63.09118 26
63.11090 23
63.13062 16
63.15034 17
63.17006 22
63.18978 21
63.20951 23
63.22923 17
63.24895 12
63.26867 11
63.28839 10
63.30811 17
63.32783 13
63.34756 18
63.36727 19
63.38700 13
63.40672 16
63.42644 17
63.44616 18
63.46588 20
63.48560 16
63.50532 20
63.52505 17
63.54477 12
63.56449 10
63.58421 8
63.60393 11
63.62365 14
63.64337 18
63.66310 19
63.68282 22
63.70254 25
63.72226 28
63.74198 33
63.76170 35
63.78142 35
63.80115 37
63.82087 41
63.84059 47
63.86031 48
63.88003 48
63.89975 41
63.91947 33
63.93920 23
63.95892 24
63.97864 26
63.99836 26
64.01808 22
64.03780 19
64.05752 17
64.07724 19
64.09697 18
64.11669 21
64.13641 16
64.15613 6
64.17585 8
64.19558 10
64.21530 15
64.23502 18
64.25474 17
64.27446 15
64.29418 8
64.31390 4
64.33362 9
64.35334 10
64.37307 10
64.39279 8
64.41251 8
64.43223 9
64.45195 8
64.47168 7
64.49140 9
64.51112 11
64.53083 11
64.55056 9
64.57028 8
64.59000 5
64.60972 4
64.62944 2
64.64917 5
64.66889 7
64.68861 7
64.70833 7
64.72805 4
64.74778 3
64.76749 3
64.78721 4
64.80693 7
64.82666 6
64.84638 5
64.86610 8
64.88582 6
64.90554 8
64.92527 14
64.94499 17
64.96471 20
64.98443 16
65.00415 13
65.02387 11
65.04359 9
65.06331 9
65.08303 14
65.10276 16
65.12248 17
65.14220 14
65.16192 10
65.18164 7
65.20137 4
65.22109 5
65.24081 8
65.26052 13
65.28025 14
65.29997 15
65.31969 12
65.33941 9
65.35913 4
65.37886 5
65.39858 5
65.41830 5
65.43802 3
65.45774 3
65.47747 0
65.49718 0
65.51690 0
65.53662 4
65.55635 4
65.57607 6
65.59579 6
65.61551 8
65.63523 6
65.65496 11
65.67468 14
65.69440 17
65.71412 13
65.73384 13
65.75356 10
65.77328 10
65.79300 5
65.81272 4
65.83245 6
65.85217 6
65.87189 2
65.89161 5
65.91133 7
65.93106 14
65.95078 17
65.97049 16
65.99021 16
66.00994 13
66.02966 6
66.04938 6
66.06910 4
66.08882 8
66.10855 6
66.12827 5
66.14799 3
66.16771 2
66.18743 0
66.20716 2
66.22687 3
66.24659 1
66.26631 3
66.28604 6
66.30576 5
66.32548 6
66.34520 6
66.36492 9
66.38465 9
66.40437 7
66.42409 8
66.44381 5
66.46353 1
66.48325 0
66.50297 0
66.52269 0
66.54241 0
66.56214 3
66.58186 3
66.60158 6
66.62130 7
66.64102 7
66.66075 6
66.68047 0
66.70018 3
66.71991 6
66.73963 6
66.75935 7
66.77907 6
66.79879 7
66.81852 4
66.83824 4
66.85796 12
66.87768 14
66.89740 16
66.91713 15
66.93685 13
66.95656 9
66.97628 5
66.99601 5
67.01573 8
67.03545 7
67.05517 8
67.07489 10
67.09462 7
67.11434 6
67.13406 7
67.15378 8
67.17350 9
67.19322 10
67.21294 9
67.23266 8
67.25238 5
67.27211 5
67.29183 4
67.31155 5
67.33127 3
67.35099 3
67.37072 2
67.39044 2
67.41016 4
67.42987 7
67.4496  7
67.46932 8
67.48904 7
67.50876 4
67.52848 4
67.54821 4
67.56793 5
67.58765 5
67.60737 2
67.62709 4
67.64682 4
67.66654 3
67.68625 4
67.70597 4
67.7257  5
67.74542 5
67.76514 3
67.78486 3
67.80458 5
67.82431 6
67.84403 6
67.86375 6
67.88347 4
67.90319 4
67.92291 5
67.94263 3
67.96235 9
67.98207 12
68.00180 15
68.02152 17
68.04124 15
68.06096 14
68.08068 12
68.10041 7
68.12013 5
68.13985 3
68.15956 2
68.17929 3
68.19901 3
68.21873 0
68.23845 2
68.25817 5
68.27790 5
68.29762 8
68.31734 6
68.33706 9
68.35678 11
68.37651 9
68.39622 11
68.41594 10
68.43566 9
68.45539 11
68.47511 8
68.49483 10
68.51455 12
68.53427 10
68.55400 11
68.57372 8
68.59344 9
68.61316 7
68.63288 8
68.65260 9
68.67232 8
68.69204 6
68.71176 5
68.73149 3
68.75121 2
68.77093 0
68.79065 5
68.81037 6
68.83010 7
68.84982 5
68.86954 2
68.88925 4
68.90898 2
68.92870 4
68.94842 4
68.96814 5
68.98786 5
69.00759 10
69.02731 12
69.04703 14
69.06675 15
69.08647 13
69.10620 10
69.12591 7
69.14563 5
69.16535 6
69.18508 2
69.20480 1
69.22452 2
69.24424 6
69.26396 14
69.28369 15
69.30341 16
69.32313 15
69.34285 11
69.36257 8
69.38229 8
69.40201 16
69.42173 18
69.44146 16
69.46118 15
69.48090 18
69.50062 18
69.52034 14
69.54007 13
69.55979 14
69.57951 10
69.59923 4
69.61895 3
69.63867 7
69.65839 8
69.67811 6
69.69783 8
69.71756 9
69.73728 9
69.75700 6
69.77672 6
69.79644 6
69.81617 5
69.83589 4
69.85560 4
69.87532 4
69.89505 8
69.91477 8
69.93449 10
69.95421 13
69.97393 10
69.99366 9
70.01338 10
70.03310 11
70.05282 14
70.07254 13
70.09227 11
70.11198 13
70.13170 9
70.15142 8
70.17115 15
70.19087 15
70.21059 12
70.23031 13
70.25003 11
70.26976 12
70.28948 11
70.30920 13
70.32892 16
70.34864 14
70.36836 10
70.38808 8
70.40780 8
70.42752 10
70.44725 14
70.46697 15
70.48669 15
70.50641 12
70.52613 7
70.54586 3
70.56558 3
70.58529 6
70.60501 9
70.62474 8
70.64446 9
70.66418 11
70.68390 11
70.70362 13
70.72335 14
70.74307 14
70.76279 12
70.78251 6
70.80223 4
70.82195 4
70.84167 7
70.86139 9
70.88111 10
70.90084 11
70.92056 14
70.94028 10
70.96000 14
70.97972 15
70.99945 15
71.01917 19
71.03889 19
71.05861 19
71.07833 21
71.09805 18
71.11777 19
71.13749 17
71.15721 13
71.17694 14
71.19666 7
71.21638 7
71.23610 7
71.25582 9
71.27555 10
71.29527 16
71.31498 15
71.33470 15
71.35443 12
71.37415 20
71.39387 28
71.41359 35
71.43331 35
71.45304 44
71.47276 45
71.49248 44
71.51220 44
71.53192 45
71.55164 49
71.57136 46
71.59108 39
71.61080 54
71.63053 65
71.65025 80
71.66997 103
71.68969 133
71.70941 158
71.72914 191
71.74886 212
71.76858 237
71.78830 246
71.80802 249
71.82774 254
71.84746 258
71.86718 241
71.88690 225
71.90663 194
71.92635 159
71.94607 120
71.96579 86
71.98551 71
72.00524 57
72.02496 42
72.04467 31
72.0644  22
72.08412 9
72.10384 0
72.12356 0
72.14328 7
72.16301 12
72.18273 21
72.20245 27
72.22217 28
72.24189 33
72.26162 32
72.28133 30
72.30105 33
72.32077 30
72.3405  24
72.36022 20
72.37994 13
72.39966 15
72.41938 15
72.43911 11
72.45883 16
72.47855 14
72.49827 15
72.51799 22
72.53771 22
72.55743 19
72.57715 21
72.59687 20
72.6166  16
72.63632 16
72.65604 18
72.67576 20
72.69548 19
72.71521 17
72.73493 19
72.75465 24
72.77436 24
72.79409 24
72.81381 21
72.83353 18
72.85325 17
72.87297 16
72.8927  12
72.91242 13
72.93214 14
72.95186 13
72.97158 13
72.99131 14
73.01102 16
73.03074 14
73.05046 12
73.07019 12
73.08991 15
73.10963 17
73.12935 17
73.14907 15
73.1688  15
73.18852 10
73.20824 7
73.22796 12
73.24768 18
73.26740 22
73.28712 22
73.30684 20
73.32656 15
73.34629 12
73.36601 14
73.38573 21
73.40545 24
73.42517 28
73.44490 25
73.46462 20
73.48434 17
73.50405 17
73.52378 16
73.54350 20
73.56322 21
73.58294 22
73.60266 20
73.62239 16
73.64211 15
73.66183 13
73.68155 9
73.70127 15
73.72100 16
73.74071 22
73.76043 32
73.78015 31
73.79988 30
73.81960 29
73.83932 27
73.85904 36
73.87876 35
73.89849 36
73.91821 41
73.93793 39
73.95765 44
73.97737 51
73.99709 62
74.01681 83
74.03653 97
74.05625 108
74.07598 109
74.09570 115
74.11542 124
74.13514 134
74.15486 143
74.17459 149
74.19431 152
74.21403 152
74.23374 137
74.25347 133
74.27319 130
74.29291 131
74.31263 121
74.33235 101
74.35208 83
74.37180 66
74.39152 57
74.41124 55
74.43096 59
74.45069 72
74.47040 86
74.49012 94
74.50985 100
74.52957 117
74.54929 140
74.56901 161
74.58873 164
74.60845 172
74.62818 167
74.64790 155
74.66762 137
74.68734 125
74.70706 113
74.72678 109
74.74650 89
74.76622 81
74.78595 62
74.80567 54
74.82539 44
74.84511 35
74.86483 36
74.88456 40
74.90428 40
74.92400 42
74.94372 33
74.96344 30
74.98316 23
75.00288 22
75.02260 25
75.04232 34
75.06205 37
75.08177 37
75.10149 36
75.12121 31
75.14093 26
75.16066 24
75.18038 29
75.20009 38
75.21981 38
75.23954 38
75.25926 35
75.27898 33
75.29870 37
75.31842 34
75.33815 45
75.35787 54
75.37759 57
75.39731 53
75.41703 43
75.43675 37
75.45647 42
75.47619 35
75.49591 40
75.51564 37
75.53536 34
75.55508 27
75.57480 15
75.59452 4
75.61425 8
75.63397 7
75.65369 8
75.67340 8
75.69313 9
75.71285 11
75.73257 11
75.75229 9
75.77201 6
75.79174 6
75.81146 9
75.83118 9
75.85090 15
75.87062 21
75.89035 23
75.91007 27
75.92978 22
75.94950 19
75.96923 18
75.98895 17
76.00867 21
76.02839 19
76.04811 16
76.06784 14
76.08756 12
76.10728 14
76.12700 13
76.14672 19
76.16644 23
76.18616 22
76.20588 16
76.22560 7
76.24533 9
76.26505 12
76.28477 11
76.30449 16
76.32421 17
76.34394 14
76.36366 9
76.38338 0
76.40309 6
76.42282 9
76.44254 10
76.46226 13
76.48198 10
76.50170 12
76.52143 13
76.54115 10
76.56087 14
76.58059 14
76.60031 11
76.62004 9
76.63976 5
76.65947 10
76.67919 15
76.69892 18
76.71864 20
76.73836 18
76.75808 17
76.77780 14
76.79753 13
76.81725 12
76.83697 14
76.85669 14
76.87641 11
76.89613 3
76.91585 9
76.93557 14
76.95529 23
76.97502 27
76.99474 29
77.01446 23
77.03418 15
77.05390 6
77.07363 7
77.09335 5
77.11307 13
77.13279 14
77.15251 13
77.17223 10
77.19195 10
77.21167 13
77.2314  16
77.25112 16
77.27084 19
77.29056 19
77.31028 18
77.33000 17
77.34973 19
77.36945 24
77.38916 28
77.40889 27
77.42861 23
77.44833 17
77.46805 16
77.48777 18
77.5075  18
77.52722 18
77.54694 20
77.56666 24
77.58638 22
77.60611 15
77.62582 11
77.64554 12
77.66526 8
77.68499 6
77.70471 7
77.72443 9
77.74415 6
77.76387 2
77.7836  1
77.80332 1
77.82304 7
77.84276 13
77.86248 17
77.88220 21
77.90192 21
77.92164 23
77.94136 21
77.96109 16
77.98081 13
78.00053 6
78.02025 4
78.03997 2
78.0597  1
78.07942 8
78.09913 11
78.11885 11
78.13858 12
78.15830 6
78.17802 8
78.19774 10
78.21746 12
78.23719 16
78.25691 18
78.27663 14
78.29635 15
78.31607 5
78.3358  11
78.35551 16
78.37523 14
78.39495 20
78.41468 20
78.43440 18
78.45412 19
78.47384 13
78.49356 20
78.51329 27
78.53301 27
78.55273 36
78.57245 39
78.59217 41
78.61189 44
78.63161 43
78.65133 45
78.67105 47
78.69078 43
78.71050 34
78.73022 36
78.74994 34
78.76966 38
78.78939 39
78.80911 42
78.82882 46
78.84854 48
78.86827 48
78.88799 58
78.90771 76
78.92743 97
78.94715 126
78.96688 145
78.98660 174
79.00632 199
79.02604 223
79.04576 250
79.06549 281
79.08520 302
79.10492 327
79.12464 332
79.14437 338
79.16409 353
79.18381 364
79.20353 369
79.22325 354
79.24298 334
79.26270 313
79.28242 272
79.30214 230
79.32186 208
79.34158 179
79.36130 154
79.38102 132
79.40074 104
79.42047 83
79.44019 60
79.45991 47
79.47963 42
79.49935 30
79.51908 34
79.53880 36
79.55851 22
79.57823 14
79.59796 16
79.61768 11
79.63740 16
79.65712 17
79.67684 22
79.69657 17
79.71629 13
79.73601 13
79.75573 11
79.77545 5
79.79518 11
79.81489 10
79.83461 7
79.85434 3
79.87406 2
79.89378 6
79.91350 6
79.93322 6
79.95295 11
79.97267 12
79.99239 10
80.01211 9
80.03183 3
80.05155 4
80.07127 3
80.09099 3
80.11071 8
80.13044 9
80.15016 7
80.16988 7
80.18960 8
80.20932 10
80.22905 9
80.24877 7
80.26849 10
80.28820 12
80.30793 13
80.32765 15
80.34737 13
80.36709 11
80.38681 12
80.40654 9
80.42626 16
80.44598 22
80.46570 24
80.48542 23
80.50515 17
80.52486 13
80.54458 7
80.56430 5
80.58403 10
80.60375 12
80.62347 11
80.64319 10
80.66291 9
80.68264 6
80.70236 2
80.72208 1
80.74180 4
80.76152 5
80.78124 7
80.80096 8
80.82068 10
80.84040 9
80.86013 6
80.87985 8
80.89957 12
80.91929 17
80.93901 20
80.95874 21
80.97846 18
80.99818 13
81.01789 7
81.03762 4
81.05734 3
81.07706 3
81.09678 1
81.11650 2
81.13623 3
81.15595 2
81.17567 4
81.19539 2
81.21511 6
81.23484 7
81.25455 9
81.27427 11
81.29399 9
81.31372 6
81.33344 5
81.35316 0
81.37288 1
81.39260 4
81.41233 7
81.43205 8
81.45177 8
81.47149 7
81.49121 4
81.51093 0
81.53065 0
81.55037 2
81.57009 2
81.58982 5
81.60954 13
81.62926 18
81.64898 19
81.66870 16
81.68843 15
81.70815 12
81.72787 7
81.74758 5
81.76731 5
81.78703 4
81.80675 1
81.82647 0
81.84619 0
81.86592 1
81.88564 0
81.90536 0
81.92508 2
81.94480 4
81.96453 5
81.98424 6
82.00396 7
82.02368 6
82.04341 3
82.06313 4
82.08285 7
82.10257 8
82.12229 11
82.14202 16
82.16174 19
82.18146 17
82.20118 14
82.22090 13
82.24062 7
82.26034 1
82.28006 4
82.29978 8
82.31951 10
82.33923 10
82.35895 10
82.37867 11
82.39839 11
82.41812 8
82.43784 10
82.45756 7
82.47728 3
82.49700 3
82.51672 6
82.53644 10
82.55616 12
82.57589 11
82.59561 11
82.61533 6
82.63505 6
82.65477 8
82.6745  8
82.69422 9
82.71393 13
82.73365 14
82.75338 15
82.77310 13
82.79282 14
82.81254 11
82.83226 11
82.85199 19
82.87171 29
82.89143 31
82.91115 25
82.93087 23
82.95059 16
82.97031 5
82.99003 4
83.00975 11
83.02948 16
83.04920 15
83.06892 12
83.08864 13
83.10836 11
83.12809 6
83.14781 8
83.16753 12
83.18725 10
83.20697 11
83.22669 10
83.24641 8
83.26613 6
83.28585 5
83.30558 4
83.32530 8
83.34502 11
83.36474 14
83.38446 19
83.40419 21
83.42391 15
83.44362 14
83.46334 9
83.48307 9
83.50279 12
83.52251 11
83.54223 14
83.56195 12
83.58168 4
83.60140 6
83.62112 6
83.64084 7
83.66056 11
83.68028 15
83.70000 15
83.71972 13
83.73944 11
83.75917 14
83.77889 17
83.79861 17
83.81833 17
83.83805 20
83.85778 18
83.87750 19
83.89722 22
83.91694 27
83.93666 28
83.95638 28
83.97610 34
83.99582 35
84.01554 37
84.03527 36
84.05499 39
84.07471 45
84.09443 44
84.11415 49
84.13388 63
84.15360 64
84.17331 63
84.19303 63
84.21276 65
84.23248 61
84.25220 57
84.27192 60
84.29164 63
84.31137 54
84.33109 50
84.35081 50
84.37053 49
84.39025 37
84.40997 39
84.42969 43
84.44941 40
84.46913 38
84.48886 41
84.50858 37
84.52830 31
84.54802 24
84.56774 27
84.58747 25
84.60719 26
84.62691 32
84.64663 44
84.66635 49
84.68607 44
84.70579 53
84.72551 47
84.74523 38
84.76496 41
84.78468 42
84.80440 43
84.82412 42
84.84384 34
84.86357 34
84.88329 26
84.90300 19
84.92272 18
84.94245 13
84.96217 9
84.98189 11
85.00161 13
85.02133 15
85.04106 14
85.06078 16
85.08050 16
85.10022 14
85.11994 10
85.13966 8
85.15938 11
85.17910 17
85.19883 17
85.21855 18
85.23827 19
85.25799 15
85.27771 14
85.29744 12
85.31716 12
85.33688 13
85.35660 14
85.37632 9
85.39604 12
85.41576 14
85.43548 17
85.45520 20
85.47493 17
85.49465 18
85.51437 18
85.53409 16
85.55381 13
85.57354 19
85.59326 18
85.61298 18
85.63269 13
85.65242 9
85.67214 8
85.69186 8
85.71158 7
85.73130 12
85.75103 13
85.77075 11
85.79047 8
85.81019 6
85.82991 7
85.84964 7
85.86935 6
85.88907 7
85.90879 8
85.92852 7
85.94824 8
85.96796 6
85.98768 5
86.00740 6
86.02713 7
86.04685 11
86.06657 14
86.08629 13
86.10601 13
86.12573 11
86.14545 11
86.16517 9
86.18489 13
86.20462 13
86.22434 14
86.24406 16
86.26378 20
86.28350 19
86.30323 21
86.32295 17
86.34267 17
86.36238 12
86.38211 8
86.40183 10
86.42155 8
86.44127 6
86.46099 11
86.48072 14
86.50044 16
86.52016 20
86.53988 17
86.55960 16
86.57933 13
86.59904 11
86.61876 9
86.63848 11
86.65821 15
86.67793 19
86.69765 27
86.71737 31
86.73709 30
86.75682 22
86.77654 13
86.79626 8
86.81598 9
86.83570 8
86.85542 20
86.87514 27
86.89486 33
86.91458 32
86.93431 30
86.95403 23
86.97375 16
86.99347 8
87.01319 10
87.03292 14
87.05264 21
87.07236 28
87.09207 31
87.11180 28
87.13152 19
87.15124 13
87.17096 7
87.19068 5
87.21041 4
87.23013 13
87.24985 19
87.26957 23
87.28929 21
87.30902 18
87.32873 11
87.34845 9
87.36817 9
87.38790 11
87.40762 15
87.42734 18
87.44706 17
87.46678 18
87.48651 14
87.50623 13
87.52595 10
87.54567 3
87.56539 5
87.58511 9
87.60483 17
87.62455 22
87.64427 23
87.66400 20
87.68372 14
87.70344 8
87.72316 7
87.74288 10
87.76261 14
87.78233 18
87.80204 21
87.82177 23
87.84149 22
87.86121 23
87.88093 21
87.90065 25
87.92038 21
87.94010 25
87.95982 28
87.97954 27
87.99926 26
88.01899 25
88.03871 26
88.05842 32
88.07814 31
88.09787 36
88.11759 43
88.13731 39
88.15703 45
88.17675 47
88.19648 54
88.21620 60
88.23592 65
88.25564 77
88.27536 83
88.29508 81
88.31480 85
88.33452 88
88.35424 87
88.37397 87
88.39369 89
88.41341 90
88.43313 74
88.45285 60
88.47258 55
88.49230 54
88.51202 47
88.53173 39
88.55146 42
88.57118 39
88.59090 25
88.61062 17
88.63034 17
88.65007 17
88.66979 10
88.68951 9
88.70923 17
88.72895 23
88.74868 24
88.76840 22
88.78811 22
88.80783 17
88.82756 7
88.84728 4
88.86700 5
88.88672 4
88.90644 7
88.92617 7
88.94589 9
88.96561 8
88.98533 6
89.00505 10
89.02477 12
89.04449 11
89.06421 12
89.08393 9
89.10366 7
89.12338 6
89.14310 4
89.16282 9
89.18254 10
89.20227 12
89.22199 11
89.24171 12
89.26142 15
89.28115 15
89.30087 12
89.32059 10
89.34031 14
89.36003 17
89.37976 20
89.39948 19
89.41920 20
89.43892 16
89.45864 11
89.47837 10
89.49809 20
89.51780 21
89.53752 24
89.55725 25
89.57697 31
89.59669 33
89.61641 30
89.63613 28
89.65586 33
89.67558 28
89.69530 30
89.71502 37
89.73474 53
89.75446 69
89.77418 73
89.79390 81
89.81362 86
89.83335 85
89.85307 91
89.87279 92
89.89251 104
89.91223 122
89.93196 123
89.95168 110
89.97140 110
89.99111 110
