?
20.0     1
20.01972 1
20.03944 1
20.05916 5
20.07888 9
20.09860 8
20.11832 10
20.13805 13
20.15777 12
20.17749 13
20.19721 13
20.21693 13
20.23665 11
20.25637 8
20.27609 10
20.29582 9
20.31554 8
20.33526 11
20.35498 10
20.37470 10
20.39442 7
20.41414 9
20.43387 10
20.45359 6
20.47331 7
20.49303 7
20.51275 5
20.53247 5
20.55219 3
20.57192 2
20.59164 5
20.61136 7
20.63108 11
20.65080 13
20.67052 12
20.69024 18
20.70996 20
20.72969 16
20.74941 15
20.76913 17
20.78885 19
20.80857 17
20.82829 14
20.84801 14
20.86774 13
20.88746 8
20.90718 5
20.92690 7
20.94662 7
20.96634 8
20.98606 8
21.00578 7
21.02551 6
21.04523 5
21.06495 6
21.08467 10
21.10439 12
21.12411 15
21.14383 15
21.16356 12
21.18328 7
21.20300 3
21.22272 0
21.24244 0
21.26216 6
21.28188 13
21.30161 16
21.32133 15
21.34105 14
21.36077 11
21.38049 5
21.40021 7
21.41993 16
21.43965 19
21.45938 19
21.47910 17
21.49882 17
21.51854 17
21.53826 18
21.55798 20
21.57770 15
21.59743 8
21.61715 9
21.63687 12
21.65659 16
21.67631 18
21.69603 23
21.71575 23
21.73547 20
21.75520 15
21.77492 17
21.79464 14
21.81436 11
21.83408 8
21.85380 16
21.87352 18
21.89325 20
21.91297 20
21.93269 22
21.95241 20
21.97213 17
21.99185 15
22.01158 13
22.03130 13
22.05102 8
22.07074 8
22.09046 13
22.11018 17
22.12990 17
22.14963 19
22.16935 16
22.18907 16
22.20879 12
22.22851 11
22.24823 9
22.26795 10
22.28767 7
22.3074  7
22.32712 5
22.34684 10
22.36656 17
22.38628 23
22.40600 25
22.42572 24
22.44545 20
22.46517 13
22.48489 13
22.50461 13
22.52433 17
22.54405 17
22.56377 16
22.58349 15
22.60322 14
22.62294 10
22.64266 10
22.66238 13
22.68210 18
22.70182 17
22.72154 17
22.74127 14
22.76099 9
22.78071 7
22.80043 4
22.82015 11
22.83987 14
22.85959 17
22.87932 20
22.89904 21
22.91876 17
22.93848 16
22.95820 11
22.97792 13
22.99764 13
23.01736 13
23.03709 16
23.05681 16
23.07653 14
23.09625 10
23.11597 11
23.13569 15
23.15541 14
23.17514 11
23.19486 9
23.21458 7
23.23430 8
23.25402 8
23.27374 10
23.29346 12
23.31318 17
23.33291 17
23.35263 14
23.37235 10
23.39207 10
23.41179 14
23.43151 14
23.45123 20
23.47096 25
23.49068 24
23.51040 16
23.53012 8
23.54984 4
23.56956 5
23.58928 5
23.60900 8
23.62873 13
23.64845 16
23.66817 19
23.68789 17
23.70761 21
23.72733 15
23.74705 15
23.76678 14
23.78650 22
23.80622 28
23.82594 31
23.84566 27
23.86538 25
23.88510 20
23.90483 16
23.92455 14
23.94427 13
23.96399 22
23.98371 25
24.00343 28
24.02315 28
24.04287 31
24.06260 28
24.08232 26
24.10204 24
24.12176 32
24.14148 36
24.16120 45
24.18092 48
24.20065 56
24.22037 64
24.24009 78
24.25981 94
24.27953 112
24.29925 129
24.31897 146
24.33869 157
24.35842 170
24.37814 192
24.39786 210
24.41758 222
24.43730 230
24.45702 220
24.47674 203
24.49647 171
24.51619 137
24.53591 113
24.55563 89
24.57535 74
24.59507 64
24.61479 53
24.63452 47
24.65424 39
24.67396 29
24.69368 29
24.71340 26
24.73312 27
24.75285 28
24.77257 25
24.79229 24
24.81201 27
24.83173 25
24.85145 24
24.87117 20
24.89089 18
24.91062 16
24.93034 10
24.95006 13
24.96978 15
24.98950 19
25.00922 18
25.02894 20
25.04867 19
25.06839 18
25.08811 18
25.10783 19
25.12755 17
25.14727 17
25.16699 13
25.18671 11
25.20644 10
25.22616 12
25.24588 18
25.26560 20
25.28532 19
25.30504 18
25.32476 18
25.34449 19
25.36421 15
25.38393 13
25.40365 14
25.42337 14
25.44309 13
25.46281 17
25.48254 19
25.50226 19
25.52198 12
25.54170 10
25.56142 11
25.58114 12
25.60086 14
25.62058 14
25.64031 14
25.66003 14
25.67975 15
25.69947 20
25.71919 22
25.73891 24
25.75863 22
25.77836 13
25.79808 10
25.81780 9
25.83752 11
25.85724 13
25.87696 13
25.89668 10
25.91640 8
25.93613 7
25.95585 6
25.97557 6
25.99529 11
26.01501 13
26.03473 18
26.05445 18
26.07418 18
26.09390 16
26.11362 9
26.13334 3
26.15306 7
26.17278 6
26.19250 11
26.21223 13
26.23195 11
26.25167 10
26.27139 10
26.29111 10
26.31083 16
26.33055 14
26.35027 16
26.37000 12
26.38972 7
26.40944 9
26.42916 13
26.44888 15
26.46860 16
26.48832 12
26.50805 13
26.52777 11
26.54749 13
26.56721 18
26.58693 20
26.60665 16
26.62637 11
26.64609 8
26.66582 12
26.68554 13
26.70526 17
26.72498 18
26.74470 14
26.76442 10
26.78414 9
26.80387 9
26.82359 12
26.84331 11
26.86303 11
26.88275 9
26.90247 10
26.92219 13
26.94192 13
26.96164 11
26.98136 10
27.00108 11
27.02080 11
27.04052 13
27.06024 17
27.07996 16
27.09969 15
27.11941 15
27.13913 10
27.15885 12
27.17857 18
27.19829 21
27.21801 20
27.23774 16
27.25746 11
27.27718 10
27.29690 7
27.31662 12
27.33634 21
27.35607 21
27.37579 19
27.39551 16
27.41523 9
27.43495 5
27.45467 5
27.47439 6
27.49411 6
27.51384 9
27.53356 13
27.55328 18
27.57300 20
27.59272 17
27.61244 15
27.63216 12
27.65189 12
27.67161 14
27.69133 17
27.71105 21
27.73077 20
27.75049 14
27.77021 10
27.78994 8
27.80966 16
27.82938 17
27.84910 23
27.86882 24
27.88854 21
27.90826 15
27.92798 18
27.94771 17
27.96743 20
27.98715 17
28.00687 16
28.02659 12
28.04631 12
28.06603 19
28.08576 28
28.10548 25
28.12520 24
28.14492 18
28.16464 17
28.18436 16
28.20408 24
28.22380 33
28.24353 31
28.26325 26
28.28297 26
28.30269 23
28.32241 23
28.34213 22
28.36185 23
28.38158 22
28.4013  16
28.42102 15
28.44074 13
28.46046 10
28.48018 8
28.49990 5
28.51963 5
28.53935 10
28.55907 14
28.57879 16
28.59851 16
28.61823 14
28.63795 12
28.65767 11
28.67740 11
28.69712 15
28.71684 17
28.73656 19
28.75628 18
28.77600 16
28.79572 18
28.81545 16
28.83517 11
28.85489 11
28.87461 7
28.89433 7
28.91405 8
28.93377 11
28.95349 16
28.97322 17
28.99294 13
29.01266 13
29.03238 9
29.05210 13
29.07182 15
29.09154 13
29.11127 11
29.13099 10
29.15071 4
29.17043 7
29.19015 14
29.20987 23
29.22959 27
29.24931 27
29.26904 25
29.28876 18
29.30848 8
29.32820 6
29.34792 7
29.36764 12
29.38736 22
29.40709 26
29.42681 26
29.44653 24
29.46625 16
29.48597 10
29.50569 8
29.52541 8
29.54514 14
29.56486 12
29.58458 12
29.60430 13
29.62402 7
29.64374 6
29.66346 7
29.68318 12
29.70291 17
29.72263 20
29.74235 23
29.76207 23
29.78179 16
29.80151 10
29.82123 7
29.84096 15
29.86068 19
29.88040 26
29.90012 28
29.91984 25
29.93956 22
29.95929 17
29.97901 13
29.99873 12
30.01845 13
30.03817 11
30.05789 10
30.07761 8
30.09734 16
30.11706 20
30.13678 24
30.15650 30
30.17622 31
30.19594 27
30.21566 19
30.23538 13
30.25511 12
30.27483 9
30.29455 11
30.31427 18
30.33399 23
30.35371 23
30.37343 19
30.39316 16
30.41288 13
30.43260 13
30.45232 11
30.47204 17
30.49176 20
30.51148 19
30.53120 17
30.55093 14
30.57065 12
30.59037 11
30.61009 14
30.62981 22
30.64953 20
30.66925 19
30.68898 15
30.7087  12
30.72842 10
30.74814 8
30.76786 15
30.78758 16
30.80730 12
30.82702 13
30.84675 10
30.86647 15
30.88619 18
30.90591 19
30.92563 20
30.94535 14
30.96507 7
30.9848  9
31.00452 10
31.02424 13
31.04396 17
31.06368 19
31.08340 19
31.10312 14
31.12285 11
31.14257 11
31.16229 9
31.18201 7
31.20173 13
31.22145 15
31.24117 21
31.26089 20
31.28062 21
31.30034 17
31.32006 14
31.33978 18
31.35950 18
31.37922 20
31.39894 23
31.41867 17
31.43839 18
31.45811 13
31.47783 12
31.49755 17
31.51727 15
31.53699 14
31.55671 14
31.57644 12
31.59616 12
31.61588 14
31.63560 17
31.65532 21
31.67504 21
31.69476 16
31.71449 14
31.73421 9
31.75393 7
31.77365 8
31.79337 15
31.81309 20
31.83281 24
31.85254 26
31.87226 19
31.89198 17
31.91170 20
31.93142 22
31.95114 26
31.97086 24
31.99058 21
32.01031 17
32.03003 5
32.04975 2
32.06947 0
32.08919 1
32.10891 6
32.12863 14
32.14836 21
32.16808 25
32.18780 24
32.20752 17
32.22724 7
32.24696 4
32.26668 3
32.28641 7
32.30613 19
32.32585 23
32.34557 29
32.36529 29
32.38501 24
32.40473 17
32.42446 12
32.44418 10
32.46390 15
32.48362 15
32.50334 18
32.52306 19
32.54278 12
32.56250 11
32.58223 10
32.60195 10
32.62167 17
32.64139 17
32.66111 19
32.68083 21
32.70055 13
32.72028 13
32.74000 8
32.75972 15
32.77944 22
32.79916 27
32.81888 36
32.83860 32
32.85833 28
32.87805 22
32.89777 12
32.91749 12
32.93721 9
32.95693 14
32.97665 21
32.99638 21
33.01610 29
33.03582 29
33.05554 26
33.07526 28
33.09498 26
33.11470 30
33.13443 38
33.15415 43
33.17387 52
33.19359 61
33.21331 74
33.23303 91
33.25275 105
33.27248 115
33.29219 124
33.31192 134
33.33164 151
33.35136 172
33.37108 198
33.39080 227
33.41052 242
33.43024 253
33.44997 252
33.46969 243
33.48941 229
33.50913 209
33.52885 197
33.54857 183
33.56829 163
33.58802 159
33.60774 145
33.62746 124
33.64718 106
33.66690 86
33.68662 78
33.70634 63
33.72607 52
33.74579 47
33.76551 45
33.78523 40
33.80495 36
33.82467 35
33.84439 33
33.86412 24
33.88384 27
33.90356 30
33.92328 33
33.94300 38
33.96272 34
33.98244 34
34.00217 29
34.02188 19
34.04161 21
34.06133 22
34.08105 17
34.10077 22
34.12049 19
34.14021 20
34.15993 17
34.17966 14
34.19938 18
34.21910 22
34.23882 21
34.25854 24
34.27826 19
34.29798 21
34.31771 16
34.33743 19
34.35715 21
34.37687 19
34.39659 18
34.41631 16
34.43603 10
34.45576 12
34.47548 11
34.49520 11
34.51492 13
34.53464 16
34.55436 22
34.57408 23
34.59381 22
34.61353 19
34.63325 12
34.65297 5
34.67269 3
34.69241 4
34.71213 9
34.73186 10
34.75157 11
34.77130 9
34.79102 9
34.81074 7
34.83046 9
34.85018 13
34.86990 14
34.88962 13
34.90935 12
34.92907 9
34.94879 10
34.96851 9
34.98823 13
35.00795 17
35.02767 18
35.04740 19
35.06712 20
35.08684 21
35.10656 20
35.12628 21
35.14600 19
35.16573 22
35.18545 23
35.20517 25
35.22489 23
35.24461 20
35.26433 16
35.28405 18
35.30378 19
35.32350 23
35.34322 27
35.36294 31
35.38266 27
35.40238 20
35.42210 11
35.44183 5
35.46155 9
35.48127 13
35.50099 24
35.52071 28
35.54043 31
35.56015 35
35.57988 36
35.59959 32
35.61932 36
35.63904 42
35.65876 49
35.67848 51
35.69820 57
35.71792 68
35.73764 82
35.75737 83
35.77709 89
35.79681 100
35.81653 107
35.83625 113
35.85597 125
35.87569 144
35.89542 165
35.91514 173
35.93486 185
35.95458 181
35.97430 169
35.99402 156
36.01374 153
36.03347 148
36.05319 153
36.07291 145
36.09263 134
36.11235 113
36.13207 93
36.15179 77
36.17152 66
36.19124 60
36.21096 59
36.23068 53
36.25040 49
36.27012 47
36.28984 41
36.30957 36
36.32928 36
36.34901 37
36.36873 33
36.38845 33
36.40817 32
36.42789 31
36.44761 28
36.46733 26
36.48706 22
36.50678 20
36.52650 20
36.54622 22
36.56594 23
36.58566 23
36.60538 23
36.62511 22
36.64483 17
36.66455 15
36.68427 11
36.70399 15
36.72371 14
36.74343 16
36.76316 17
36.78288 21
36.80260 20
36.82232 18
36.84204 11
36.86176 13
36.88148 13
36.90121 13
36.92092 13
36.94065 16
36.96037 15
36.98009 16
36.99981 14
37.01953 21
37.03926 23
37.05897 18
37.07870 17
37.09842 14
37.11814 9
37.13786 6
37.15758 7
37.17730 10
37.19702 11
37.21675 13
37.23647 18
37.25619 18
37.27591 16
37.29563 16
37.31535 17
37.33507 15
37.35480 13
37.37452 14
37.39424 15
37.41396 17
37.43368 14
37.45340 20
37.47312 22
37.49285 23
37.51257 20
37.53229 15
37.55201 12
37.57173 13
37.59145 10
37.61117 14
37.63090 14
37.65062 17
37.67034 14
37.69006 13
37.70978 15
37.72950 14
37.74922 14
37.76894 17
37.78867 15
37.80839 11
37.82811 11
37.84783 10
37.86755 11
37.88728 13
37.90699 17
37.92672 16
37.94644 21
37.96616 20
37.98588 18
38.00560 14
38.02532 11
38.04504 11
38.06477 13
38.08449 13
38.10421 20
38.12393 21
38.14365 19
38.16337 15
38.18309 9
38.20282 9
38.22254 9
38.24226 10
38.26198 9
38.28170 12
38.30142 12
38.32114 12
38.34087 12
38.36059 13
38.38031 15
38.40003 18
38.41975 21
38.43947 23
38.45919 24
38.47892 20
38.49863 17
38.51836 11
38.53808 11
38.55780 9
38.57752 8
38.59724 12
38.61697 15
38.63668 13
38.65641 15
38.67613 11
38.69585 8
38.71557 5
38.73529 4
38.75501 6
38.77473 9
38.79446 8
38.81418 12
38.83390 11
38.85362 12
38.87334 9
38.89306 11
38.91278 12
38.93251 16
38.95223 14
38.97195 20
38.99167 19
39.01139 18
39.03111 12
39.05083 12
39.07056 8
39.09028 7
39.11000 6
39.12972 11
39.14944 10
39.16916 16
39.18888 19
39.20861 24
39.22832 20
39.24805 20
39.26777 15
39.28749 16
39.30721 12
39.32693 18
39.34665 20
39.36637 19
39.38610 15
39.40582 13
39.42554 13
39.44526 18
39.46498 22
39.48470 28
39.50442 32
39.52415 28
39.54387 24
39.56359 18
39.58331 17
39.60303 13
39.62275 17
39.64247 18
39.66220 25
39.68192 26
39.70164 24
39.72136 19
39.74108 15
39.76080 5
39.78052 2
39.80025 1
39.81997 9
39.83969 16
39.85941 22
39.87913 25
39.89885 23
39.91857 13
39.93830 10
39.95801 10
39.97774 15
39.99746 17
40.01718 18
40.03690 18
40.05662 14
40.07634 7
40.09606 9
40.11579 8
40.13551 6
40.15523 7
40.17495 7
40.19467 7
40.21439 10
40.23411 14
40.25384 13
40.27356 12
40.29328 15
40.31300 21
40.33272 21
40.35244 20
40.37216 22
40.39189 15
40.41161 8
40.43133 9
40.45105 15
40.47077 13
40.49049 13
40.51022 14
40.52994 12
40.54966 8
40.56938 7
40.58910 9
40.60882 6
40.62854 7
40.64827 10
40.66799 14
40.68771 14
40.70743 21
40.72715 20
40.74687 19
40.76659 11
40.78632 13
40.80603 12
40.82576 13
40.84548 13
40.86520 17
40.88492 16
40.90464 17
40.92436 13
40.94408 20
40.96381 21
40.98353 34
41.00325 39
41.02297 45
41.04269 44
41.06241 50
41.08213 52
41.10186 60
41.12158 61
41.14130 72
41.16102 77
41.18074 86
41.20046 87
41.22018 97
41.23991 101
41.25963 108
41.27935 103
41.29907 101
41.31879 95
41.33851 88
41.35823 79
41.37796 75
41.39768 71
41.4174  72
41.43712 72
41.45684 64
41.47656 57
41.49628 50
41.51601 40
41.53572 34
41.55545 30
41.57517 32
41.59489 36
41.61461 29
41.63433 29
41.65405 29
41.67377 22
41.69350 17
41.71322 20
41.73294 21
41.75266 22
41.77238 16
41.79210 14
41.81182 10
41.83155 5
41.85127 3
41.87099 7
41.89071 10
41.91043 18
41.93015 20
41.94987 23
41.96960 20
41.98932 15
42.00904 14
42.02876 6
42.04848 9
42.06820 15
42.08792 17
42.10765 15
42.12737 15
42.14709 15
42.16681 16
42.18653 11
42.20625 17
42.22597 15
42.24570 19
42.26541 14
42.28514 19
42.30486 23
42.32458 24
42.34430 25
42.36402 21
42.38374 16
42.40346 13
42.42319 8
42.44291 8
42.46263 10
42.48235 10
42.50207 18
42.52179 16
42.54151 21
42.56124 21
42.58096 22
42.60068 16
42.62040 14
42.64012 14
42.65984 16
42.67956 14
42.69929 20
42.71901 21
42.73873 17
42.75845 10
42.77817 8
42.79789 8
42.81761 8
42.83734 9
42.85706 16
42.87678 21
42.89650 24
42.91622 29
42.93594 28
42.95566 26
42.97539 20
42.99511 10
43.01483 9
43.03455 8
43.05427 13
43.07399 21
43.09371 25
43.11343 27
43.13316 22
43.15288 22
43.17260 22
43.19232 24
43.21204 28
43.23176 32
43.25148 37
43.27121 34
43.29093 31
43.31065 33
43.33037 34
43.35009 38
43.36981 48
43.38953 58
43.40926 67
43.42898 74
43.44870 87
43.46842 92
43.48814 108
43.50786 128
43.52758 171
43.54731 228
43.56703 321
43.58675 486
43.60647 785
43.62619 1177
43.64591 1643
43.66563 2193
43.68536 2775
43.70508 3309
43.7248  3615
43.74452 3626
43.76424 3312
43.78396 2695
43.80368 1962
43.82341 1264
43.84312 749
43.86285 448
43.88257 283
43.90229 224
43.92201 156
43.94173 118
43.96145 109
43.98117 90
44.0009  88
44.02062 70
44.04034 64
44.06006 65
44.07978 54
44.09950 57
44.11922 55
44.13895 57
44.15867 52
44.17839 53
44.19811 48
44.21783 46
44.23755 41
44.25727 37
44.277   40
44.29672 33
44.31644 33
44.33616 34
44.35588 34
44.37560 38
44.39532 34
44.41505 36
44.43477 31
44.45449 22
44.47421 20
44.49393 15
44.51365 16
44.53337 11
44.55310 13
44.57281 21
44.59254 19
44.61226 20
44.63198 26
44.65170 30
44.67142 26
44.69114 15
44.71086 13
44.73059 12
44.75031 5
44.77003 6
44.78975 6
44.80947 13
44.82919 14
44.84891 14
44.86864 15
44.88836 16
44.90808 12
44.92780 7
44.94752 5
44.96724 6
44.98696 6
45.00669 10
45.02641 9
45.04613 10
45.06585 11
45.08557 12
45.10529 16
45.12501 15
45.14474 13
45.16446 13
45.18418 11
45.20390 8
45.22362 5
45.24334 8
45.26306 9
45.28279 12
45.30250 9
45.32223 12
45.34195 12
45.36167 10
45.38139 8
45.40111 8
45.42083 9
45.44055 11
45.46028 12
45.48000 15
45.49972 11
45.51944 13
45.53916 11
45.55888 10
45.57860 12
45.59833 14
45.61805 18
45.63777 18
45.65749 13
45.67721 13
45.69693 9
45.71666 7
45.73638 5
45.75610 8
45.77582 11
45.79554 11
45.81526 7
45.83498 11
45.85471 11
45.87443 13
45.89415 11
45.91387 19
45.93359 22
45.95331 19
45.97303 15
45.99276 15
46.01248 10
46.0322  9
46.05192 3
46.07164 6
46.09136 5
46.11108 10
46.13081 20
46.15052 23
46.17025 28
46.18997 27
46.20969 24
46.22941 23
46.24913 18
46.26885 17
46.28857 13
46.3083  8
46.32802 6
46.34774 4
46.36746 3
46.38718 8
46.40690 13
46.42662 13
46.44635 12
46.46607 14
46.48579 16
46.50551 14
46.52523 13
46.54495 12
46.56467 13
46.5844  8
46.60412 9
46.62384 11
46.64356 14
46.66328 13
46.68300 12
46.70272 11
46.72245 7
46.74217 9
46.76189 12
46.78161 11
46.80133 15
46.82105 16
46.84077 19
46.8605  20
46.88021 17
46.89994 17
46.91966 13
46.93938 10
46.95910 9
46.97882 10
46.99854 12
47.01826 12
47.03799 10
47.05771 8
47.07743 8
47.09715 5
47.11687 7
47.13659 5
47.15631 7
47.17604 8
47.19576 10
47.21548 15
47.23520 15
47.25492 16
47.27464 17
47.29436 16
47.31409 20
47.33381 20
47.35353 24
47.37325 25
47.39297 24
47.41269 20
47.43241 15
47.45214 14
47.47186 14
47.49158 14
47.51130 14
47.53102 14
47.55074 13
47.57046 6
47.59019 2
47.60990 5
47.62963 8
47.64935 13
47.66907 18
47.68879 23
47.70851 26
47.72823 20
47.74795 17
47.76768 19
47.78740 15
47.80712 14
47.82684 13
47.84656 13
47.86628 12
47.88600 5
47.90573 8
47.92545 9
47.94517 11
47.96489 15
47.98461 16
48.00433 15
48.02405 13
48.04378 12
48.06350 14
48.08322 12
48.10294 13
48.12266 13
48.14238 16
48.16210 13
48.18183 15
48.20155 19
48.22127 25
48.24099 24
48.26071 22
48.28043 17
48.30015 17
48.31988 10
48.3396  5
48.35932 4
48.37904 10
48.39876 14
48.41848 18
48.43821 19
48.45792 22
48.47765 23
48.49737 19
48.51709 14
48.53681 14
48.55653 13
48.57625 12
48.59597 10
48.6157  14
48.63542 19
48.65514 20
48.67486 16
48.69458 14
48.71430 11
48.73402 10
48.75375 5
48.77347 9
48.79319 14
48.81291 14
48.83263 14
48.85235 18
48.87207 20
48.8918  26
48.91152 23
48.93124 21
48.95096 24
48.97068 20
48.99040 18
49.01012 16
49.02985 13
49.04956 11
49.06929 9
49.08901 7
49.10873 13
49.12845 17
49.14817 22
49.1679  28
49.18761 30
49.20734 29
49.22706 29
49.24678 20
49.26650 15
49.28622 11
49.30594 10
49.32566 13
49.34539 20
49.36511 24
49.38483 27
49.40455 25
49.42427 23
49.44399 22
49.46371 19
49.48344 15
49.50316 21
49.52288 28
49.54260 34
49.56232 38
49.58204 39
49.60176 42
49.62149 38
49.64121 28
49.66093 27
49.68065 29
49.70037 25
49.72009 21
49.73981 18
49.75954 27
49.77925 33
49.79898 35
49.81870 40
49.83842 51
49.85814 57
49.87786 54
49.89759 53
49.91730 64
49.93703 69
49.95675 71
49.97647 66
49.99619 73
50.01591 70
50.03563 63
50.05535 57
50.07508 58
50.09480 56
50.11452 54
50.13424 46
50.15396 49
50.17368 42
50.19340 39
50.21313 34
50.23285 32
50.25257 37
50.27229 40
50.29201 47
50.31173 54
50.33145 51
50.35118 53
50.37090 50
50.39062 43
50.41034 43
50.43006 46
50.44978 49
50.46950 50
50.48923 51
50.50894 65
50.52867 74
50.54839 84
50.56811 104
50.58783 129
50.60755 154
50.62727 183
50.64699 223
50.66672 289
50.68644 374
50.70616 469
50.72588 600
50.74560 747
50.76532 901
50.78504 1035
50.80477 1116
50.82449 1178
50.84421 1202
50.86393 1190
50.88365 1192
50.90337 1158
50.9231  1130
50.94282 1067
50.96254 945
50.98226 800
51.00198 654
51.02170 504
51.04142 393
51.06115 280
51.08087 224
51.10059 181
51.12031 147
51.14003 117
51.15975 109
51.17947 94
51.1992  89
51.21892 74
51.23864 67
51.25836 51
51.27808 41
51.29780 35
51.31752 30
51.33725 26
51.35696 27
51.37669 27
51.39641 31
51.41613 32
51.43585 34
51.45557 40
51.47529 38
51.49501 30
51.51474 28
51.53446 23
51.55418 18
51.57390 11
51.59362 10
51.61334 13
51.63306 15
51.65279 15
51.67251 20
51.69223 22
51.71195 22
51.73167 21
51.75139 19
51.77111 22
51.79084 23
51.81056 23
51.83028 19
51.85000 19
51.86972 18
51.88944 17
51.90916 14
51.92889 16
51.94861 18
51.96833 15
51.98805 15
52.00777 16
52.02749 16
52.04721 14
52.06694 12
52.08665 10
52.10638 13
52.12610 8
52.14582 14
52.16554 17
52.18526 19
52.20498 18
52.22470 18
52.24443 17
52.26415 19
52.28387 15
52.30359 17
52.32331 20
52.34303 17
52.36275 15
52.38248 10
52.40220 8
52.42192 9
52.44164 8
52.46136 5
52.48108 12
52.50080 12
52.52053 17
52.54025 19
52.55997 21
52.57969 22
52.59941 17
52.61913 7
52.63885 6
52.65858 2
52.67830 6
52.69802 9
52.71774 12
52.73746 15
52.75718 13
52.77690 11
52.79663 14
52.81634 15
52.83607 14
52.85579 10
52.87551 9
52.89523 9
52.91495 7
52.93467 8
52.95439 15
52.97412 15
52.99384 12
53.01356 10
53.03328 9
53.05300 10
53.07272 13
53.09244 11
53.11217 17
53.13189 16
53.15161 14
53.17133 16
53.19105 16
53.21077 17
53.23049 15
53.25022 10
53.26994 10
53.28966 6
53.30938 2
53.32910 2
53.34882 8
53.36854 14
53.38827 15
53.40799 22
53.42771 25
53.44743 24
53.46715 23
53.48687 22
53.50659 20
53.52632 20
53.54604 14
53.56576 15
53.58548 15
53.60520 11
53.62492 14
53.64465 13
53.66436 8
53.68409 7
53.70381 3
53.72353 4
53.74325 8
53.76297 8
53.78269 10
53.80241 17
53.82214 19
53.84186 21
53.86158 23
53.88130 26
53.90102 27
53.92074 26
53.94046 21
53.96019 24
53.97991 20
53.99963 20
54.01935 16
54.03907 15
54.05879 14
54.07851 15
54.09824 13
54.11796 16
54.13768 17
54.15740 17
54.17712 18
54.19684 21
54.21656 21
54.23629 24
54.25601 27
54.27573 35
54.29545 37
54.31517 38
54.33489 43
54.35461 51
54.37434 57
54.39405 68
54.41378 73
54.43350 82
54.45322 77
54.47294 77
54.49266 74
54.51238 75
54.53210 75
54.55183 76
54.57155 70
54.59127 83
54.61099 84
54.63071 94
54.65043 95
54.67015 99
54.68988 94
54.70960 91
54.72932 76
54.74904 75
54.76876 67
54.78848 58
54.80820 46
54.82793 45
54.84765 38
54.86737 41
54.88709 42
54.90681 46
54.92653 46
54.94625 40
54.96598 35
54.98570 30
55.00542 23
55.02514 22
55.04486 20
55.06458 19
55.08430 16
55.10403 14
55.12374 11
55.14347 9
55.16319 12
55.18291 14
55.20263 13
55.22235 18
55.24207 18
55.26179 17
55.28152 18
55.30124 18
55.32096 21
55.34068 19
55.36040 15
55.38012 12
55.39984 7
55.41957 1
55.43929 5
55.45901 10
55.47873 12
55.49845 19
55.51817 25
55.53789 27
55.55762 23
55.57734 16
55.59706 9
55.61678 9
55.63650 4
55.65622 11
55.67594 12
55.69567 11
55.71539 15
55.73511 18
55.75483 18
55.77455 22
55.79427 20
55.81399 16
55.83372 12
55.85343 9
55.87316 15
55.89288 18
55.91260 18
55.93232 19
55.95204 16
55.97176 14
55.99148 18
56.01121 19
56.03093 17
56.05065 19
56.07037 18
56.09009 18
56.10981 18
56.12953 20
56.14926 22
56.16898 22
56.18870 15
56.20842 13
56.22814 10
56.24786 10
56.26759 13
56.28731 13
56.30703 14
56.32675 14
56.34647 13
56.36619 10
56.38591 13
56.40564 16
56.42536 17
56.44508 18
56.46480 14
56.48452 13
56.50424 9
56.52396 8
56.54369 4
56.56341 5
56.58313 10
56.60285 14
56.62257 15
56.64229 14
56.66201 16
56.68174 20
56.70145 18
56.72118 21
56.74090 20
56.76062 22
56.78034 19
56.80006 13
56.81978 13
56.83950 8
56.85923 5
56.87895 4
56.89867 5
56.91839 9
56.93811 12
56.95783 15
56.97755 17
56.99728 20
57.01700 20
57.03672 19
57.05644 21
57.07616 23
57.09588 18
57.11560 18
57.13533 18
57.15505 16
57.17477 10
57.19449 8
57.21421 6
57.23393 7
57.25365 7
57.27338 11
57.29310 16
57.31282 18
57.33254 18
57.35226 23
57.37198 25
57.39170 23
57.41143 23
57.43114 21
57.45087 19
57.47059 11
57.49031 7
57.51003 8
57.52975 9
57.54947 8
57.56919 9
57.58892 11
57.60864 11
57.62836 12
57.64808 16
57.66780 19
57.68752 23
57.70724 23
57.72697 22
57.74669 22
57.76641 25
57.78613 26
57.80585 25
57.82557 25
57.84529 26
57.86502 24
57.88474 20
57.90446 18
57.92418 18
57.94390 16
57.96362 16
57.98334 12
58.00307 18
58.02279 21
58.04251 20
58.06223 25
58.08195 30
58.10167 27
58.12139 26
58.14112 19
58.16083 20
58.18056 12
58.20028 7
58.22000 5
58.23972 4
58.25944 6
58.27916 10
58.29888 13
58.31861 15
58.33833 20
58.35805 23
58.37777 23
58.39749 26
58.41721 28
58.43693 27
58.45666 29
58.47638 29
58.49610 31
58.51582 26
58.53554 22
58.55526 15
58.57498 9
58.59471 9
58.61443 9
58.63415 11
58.65387 15
58.67359 19
58.69331 20
58.71303 18
58.73276 20
58.75248 21
58.77220 18
58.79192 20
58.81164 23
58.83136 22
58.85108 18
58.87081 15
58.89053 13
58.91025 13
58.92997 13
58.94969 15
58.96941 18
58.98914 18
59.00885 19
59.02858 19
59.04830 14
59.06802 12
59.08774 7
59.10746 7
59.12718 8
59.14690 13
59.16663 15
59.18635 12
59.20607 10
59.22579 9
59.24551 7
59.26523 7
59.28495 8
59.30468 15
59.32440 20
59.34412 23
59.36384 25
59.38356 23
59.40328 21
59.42300 16
59.44273 16
59.46245 15
59.48217 12
59.50189 11
59.52161 10
59.54133 7
59.56105 5
59.58078 7
59.60050 14
59.62022 18
59.63994 18
59.65966 19
59.67938 16
59.69910 12
59.71883 7
59.73854 6
59.75827 10
59.77799 11
59.79771 14
59.81743 19
59.83715 22
59.85687 23
59.87659 23
59.89632 17
59.91604 12
59.93576 6
59.95548 5
59.97520 5
59.99492 6
60.01464 8
60.03437 9
60.05409 10
60.07381 15
60.09353 21
60.11325 24
60.13297 25
60.15269 24
60.17242 18
60.19214 15
60.21186 10
60.23158 8
60.25130 8
60.27102 5
60.29074 9
60.31047 14
60.33018 17
60.34991 23
60.36963 25
60.38935 24
60.40907 25
60.42879 20
60.44852 15
60.46823 14
60.48796 12
60.50768 12
60.52740 8
60.54712 8
60.56684 8
60.58656 10
60.60628 7
60.62601 10
60.64573 10
60.66545 9
60.68517 8
60.70489 8
60.72461 8
60.74433 10
60.76406 8
60.78378 13
60.80350 14
60.82322 11
60.84294 11
60.86266 8
60.88238 10
60.90211 10
60.92183 11
60.94155 14
60.96127 14
60.98099 11
61.00071 11
61.02043 10
61.04016 11
61.05987 14
61.07960 13
61.09932 12
61.11904 9
61.13876 8
61.15848 12
61.17820 15
61.19792 18
61.21765 17
61.23737 14
61.25709 13
61.27681 11
61.29653 11
61.31625 14
61.33597 14
61.35570 11
61.37542 5
61.39514 2
61.41486 0
61.43458 1
61.45430 2
61.47403 3
61.49375 11
61.51347 16
61.53319 21
61.55291 20
61.57263 19
61.59235 20
61.61208 16
61.63180 16
61.65152 17
61.67124 16
61.69096 11
61.71068 8
61.73040 12
61.75013 15
61.76985 13
61.78957 14
61.80929 8
61.82901 5
61.84873 2
61.86845 4
61.88818 11
61.90789 10
61.92762 14
61.94734 15
61.96706 17
61.98678 22
62.00650 25
62.02623 25
62.04594 23
62.06567 16
62.08539 13
62.10511 10
62.12483 7
62.14455 7
62.16427 8
62.18399 7
62.20372 2
62.22344 4
62.24316 6
62.26288 5
62.28260 11
62.30232 14
62.32204 17
62.34177 17
62.36149 18
62.38121 19
62.40093 19
62.42065 17
62.44037 21
62.46009 19
62.47982 18
62.49954 17
62.51926 16
62.53898 15
62.55870 21
62.57842 22
62.59814 16
62.61787 16
62.63758 16
62.65731 16
62.67703 25
62.69675 30
62.71647 37
62.73619 37
62.75591 30
62.77563 31
62.79536 32
62.81508 40
62.83480 48
62.85452 48
62.87424 52
62.89396 54
62.91368 50
62.93341 57
62.95313 57
62.97285 60
62.99257 61
63.01229 65
63.03201 60
63.05173 61
63.07146 57
63.09118 61
63.11090 57
63.13062 55
63.15034 51
63.17006 44
63.18978 29
63.20951 27
63.22923 30
63.24895 38
63.26867 47
63.28839 48
63.30811 41
63.32783 35
63.34756 34
63.36727 36
63.38700 37
63.40672 35
63.42644 33
63.44616 23
63.46588 15
63.48560 14
63.50532 15
63.52505 12
63.54477 10
63.56449 12
63.58421 13
63.60393 13
63.62365 19
63.64337 27
63.66310 27
63.68282 22
63.70254 23
63.72226 21
63.74198 12
63.76170 6
63.78142 8
63.80115 13
63.82087 11
63.84059 11
63.86031 15
63.88003 17
63.89975 18
63.91947 21
63.93920 24
63.95892 19
63.97864 15
63.99836 11
64.01808 11
64.03780 11
64.05752 12
64.07724 13
64.09697 10
64.11669 6
64.13641 10
64.15613 16
64.17585 18
64.19558 20
64.21530 24
64.23502 23
64.25474 26
64.27446 28
64.29418 30
64.31390 30
64.33362 24
64.35334 19
64.37307 16
64.39279 13
64.41251 16
64.43223 15
64.45195 14
64.47168 13
64.49140 17
64.51112 23
64.53083 32
64.55056 39
64.57028 41
64.59000 40
64.60972 40
64.62944 40
64.64917 40
64.66889 38
64.68861 36
64.70833 26
64.72805 18
64.74778 14
64.76749 15
64.78721 17
64.80693 20
64.82666 22
64.84638 21
64.86610 21
64.88582 23
64.90554 29
64.92527 31
64.94499 30
64.96471 32
64.98443 28
65.00415 21
65.02387 21
65.04359 20
65.06331 18
65.08303 15
65.10276 12
65.12248 14
65.14220 9
65.16192 10
65.18164 10
65.20137 13
65.22109 10
65.24081 10
65.26052 12
65.28025 12
65.29997 8
65.31969 11
65.33941 14
65.35913 23
65.37886 22
65.39858 25
65.41830 26
65.43802 20
65.45774 14
65.47747 10
65.49718 9
65.51690 9
65.53662 4
65.55635 4
65.57607 4
65.59579 2
65.61551 4
65.63523 5
65.65496 10
65.67468 12
65.69440 13
65.71412 15
65.73384 15
65.75356 13
65.77328 14
65.79300 6
65.81272 10
65.83245 15
65.85217 17
65.87189 21
65.89161 26
65.91133 26
65.93106 22
65.95078 10
65.97049 10
65.99021 10
66.00994 7
66.02966 7
66.04938 8
66.06910 4
66.08882 5
66.10855 6
66.12827 13
66.14799 17
66.16771 17
66.18743 17
66.20716 16
66.22687 12
66.24659 15
66.26631 21
66.28604 21
66.30576 21
66.32548 16
66.34520 15
66.36492 13
66.38465 11
66.40437 11
66.42409 11
66.44381 4
66.46353 5
66.48325 6
66.50297 12
66.52269 17
66.54241 16
66.56214 19
66.58186 18
66.60158 16
66.62130 17
66.64102 18
66.66075 21
66.68047 20
66.70018 14
66.71991 17
66.73963 16
66.75935 12
66.77907 9
66.79879 10
66.81852 11
66.83824 10
66.85796 11
66.87768 13
66.89740 13
66.91713 13
66.93685 14
66.95656 13
66.97628 13
66.99601 12
67.01573 13
67.03545 12
67.05517 14
67.07489 20
67.09462 16
67.11434 14
67.13406 21
67.15378 23
67.17350 24
67.19322 26
67.21294 23
67.23266 25
67.25238 19
67.27211 18
67.29183 21
67.31155 18
67.33127 13
67.35099 11
67.37072 8
67.39044 7
67.41016 7
67.42987 10
67.4496  14
67.46932 16
67.48904 13
67.50876 17
67.52848 17
67.54821 15
67.56793 19
67.58765 20
67.60737 20
67.62709 19
67.64682 16
67.66654 13
67.68625 11
67.70597 8
67.7257  10
67.74542 8
67.76514 11
67.78486 12
67.80458 17
67.82431 16
67.84403 17
67.86375 15
67.88347 14
67.90319 13
67.92291 13
67.94263 15
67.96235 14
67.98207 14
68.00180 15
68.02152 15
68.04124 14
68.06096 16
68.08068 14
68.10041 16
68.12013 11
68.13985 10
68.15956 13
68.17929 14
68.19901 16
68.21873 21
68.23845 20
68.25817 22
68.27790 21
68.29762 18
68.31734 20
68.33706 19
68.35678 20
68.37651 20
68.39622 16
68.41594 13
68.43566 12
68.45539 10
68.47511 9
68.49483 8
68.51455 12
68.53427 15
68.55400 16
68.57372 15
68.59344 15
68.61316 12
68.63288 7
68.65260 8
68.67232 10
68.69204 19
68.71176 24
68.73149 26
68.75121 29
68.77093 30
68.79065 27
68.81037 26
68.83010 23
68.84982 23
68.86954 22
68.88925 18
68.90898 15
68.92870 19
68.94842 18
68.96814 17
68.98786 13
69.00759 11
69.02731 11
69.04703 11
69.06675 15
69.08647 22
69.10620 25
69.12591 21
69.14563 21
69.16535 20
69.18508 21
69.20480 21
69.22452 21
69.24424 21
69.26396 15
69.28369 13
69.30341 17
69.32313 21
69.34285 25
69.36257 23
69.38229 17
69.40201 16
69.42173 10
69.44146 14
69.46118 18
69.48090 20
69.50062 20
69.52034 20
69.54007 16
69.55979 14
69.57951 12
69.59923 10
69.61895 9
69.63867 6
69.65839 5
69.67811 11
69.69783 14
69.71756 15
69.73728 18
69.75700 18
69.77672 23
69.79644 23
69.81617 24
69.83589 27
69.85560 26
69.87532 18
69.89505 16
69.91477 11
69.93449 12
69.95421 12
69.97393 14
69.99366 14
70.01338 13
70.03310 6
70.05282 6
70.07254 5
70.09227 8
70.11198 13
70.13170 17
70.15142 18
70.17115 15
70.19087 13
70.21059 15
70.23031 17
70.25003 17
70.26976 20
70.28948 26
70.30920 29
70.32892 25
70.34864 24
70.36836 18
70.38808 19
70.40780 17
70.42752 13
70.44725 19
70.46697 20
70.48669 18
70.50641 13
70.52613 9
70.54586 12
70.56558 13
70.58529 10
70.60501 12
70.62474 13
70.64446 10
70.66418 11
70.68390 15
70.70362 15
70.72335 16
70.74307 18
70.76279 18
70.78251 13
70.80223 15
70.82195 18
70.84167 20
70.86139 17
70.88111 12
70.90084 15
70.92056 14
70.94028 10
70.96000 12
70.97972 14
70.99945 15
71.01917 11
71.03889 4
71.05861 7
71.07833 13
71.09805 16
71.11777 17
71.13749 20
71.15721 21
71.17694 18
71.19666 15
71.21638 17
71.23610 22
71.25582 21
71.27555 16
71.29527 11
71.31498 6
71.33470 4
71.35443 5
71.37415 4
71.39387 7
71.41359 11
71.43331 13
71.45304 15
71.47276 13
71.49248 14
71.51220 14
71.53192 10
71.55164 11
71.57136 17
71.59108 15
71.61080 16
71.63053 14
71.65025 13
71.66997 12
71.68969 12
71.70941 15
71.72914 15
71.74886 13
71.76858 13
71.78830 12
71.80802 9
71.82774 10
71.84746 12
71.86718 12
71.88690 12
71.90663 15
71.92635 12
71.94607 13
71.96579 10
71.98551 13
72.00524 16
72.02496 20
72.04467 27
72.0644  29
72.08412 25
72.10384 18
72.12356 7
72.14328 9
72.16301 12
72.18273 17
72.20245 19
72.22217 17
72.24189 15
72.26162 8
72.28133 8
72.30105 12
72.32077 16
72.3405  18
72.36022 16
72.37994 11
72.39966 10
72.41938 10
72.43911 13
72.45883 14
72.47855 17
72.49827 19
72.51799 17
72.53771 18
72.55743 18
72.57715 19
72.59687 22
72.6166  23
72.63632 21
72.65604 18
72.67576 14
72.69548 13
72.71521 14
72.73493 18
72.75465 24
72.77436 21
72.79409 17
72.81381 13
72.83353 11
72.85325 7
72.87297 12
72.8927  16
72.91242 20
72.93214 20
72.95186 16
72.97158 15
72.99131 18
73.01102 16
73.03074 18
73.05046 18
73.07019 19
73.08991 15
73.10963 10
73.12935 9
73.14907 9
73.1688  7
73.18852 4
73.20824 6
73.22796 9
73.24768 12
73.26740 18
73.28712 23
73.30684 22
73.32656 21
73.34629 17
73.36601 19
73.38573 13
73.40545 13
73.42517 15
73.44490 14
73.46462 11
73.48434 11
73.50405 11
73.52378 11
73.54350 6
73.56322 6
73.58294 8
73.60266 10
73.62239 11
73.64211 13
73.66183 16
73.68155 17
73.70127 15
73.72100 18
73.74071 20
73.76043 19
73.78015 16
73.79988 14
73.81960 12
73.83932 10
73.85904 12
73.87876 15
73.89849 15
73.91821 17
73.93793 18
73.95765 20
73.97737 18
73.99709 17
74.01681 18
74.03653 14
74.05625 11
74.07598 10
74.09570 11
74.11542 15
74.13514 15
74.15486 15
74.17459 11
74.19431 10
74.21403 7
74.23374 9
74.25347 18
74.27319 21
74.29291 25
74.31263 25
74.33235 20
74.35208 21
74.37180 24
74.39152 32
74.41124 45
74.43096 46
74.45069 50
74.47040 47
74.49012 50
74.50985 58
74.52957 67
74.54929 82
74.56901 110
74.58873 126
74.60845 171
74.62818 216
74.64790 302
74.66762 420
74.68734 558
74.70706 683
74.72678 771
74.74650 774
74.76622 728
74.78595 624
74.80567 529
74.82539 450
74.84511 413
74.86483 392
74.88456 365
74.90428 330
74.92400 289
74.94372 243
74.96344 200
74.98316 161
75.00288 139
75.02260 113
75.04232 84
75.06205 61
75.08177 47
75.10149 38
75.12121 28
75.14093 35
75.16066 43
75.18038 39
75.20009 37
75.21981 25
75.23954 25
75.25926 20
75.27898 16
75.29870 22
75.31842 20
75.33815 22
75.35787 23
75.37759 20
75.39731 20
75.41703 16
75.43675 20
75.45647 16
75.47619 11
75.49591 13
75.51564 10
75.53536 6
75.55508 3
75.57480 2
75.59452 2
75.61425 1
75.63397 2
75.65369 0
75.67340 0
75.69313 6
75.71285 10
75.73257 11
75.75229 18
75.77201 20
75.79174 21
75.81146 17
75.83118 17
75.85090 21
75.87062 17
75.89035 14
75.91007 14
75.92978 10
75.94950 10
75.96923 8
75.98895 8
76.00867 13
76.02839 14
76.04811 16
76.06784 11
76.08756 10
76.10728 10
76.12700 11
76.14672 12
76.16644 13
76.18616 16
76.20588 18
76.22560 15
76.24533 13
76.26505 11
76.28477 16
76.30449 19
76.32421 20
76.34394 23
76.36366 23
76.38338 18
76.40309 7
76.42282 3
76.44254 5
76.46226 9
76.48198 12
76.50170 14
76.52143 11
76.54115 7
76.56087 4
76.58059 6
76.60031 8
76.62004 12
76.63976 17
76.65947 17
76.67919 15
76.69892 17
76.71864 17
76.73836 19
76.75808 18
76.77780 20
76.79753 22
76.81725 20
76.83697 17
76.85669 17
76.87641 10
76.89613 5
76.91585 2
76.93557 0
76.95529 0
76.97502 0
76.99474 1
77.01446 1
77.03418 4
77.05390 5
77.07363 7
77.09335 8
77.11307 9
77.13279 15
77.15251 17
77.17223 22
77.19195 25
77.21167 25
77.2314  22
77.25112 17
77.27084 12
77.29056 10
77.31028 4
77.33000 9
77.34973 11
77.36945 14
77.38916 14
77.40889 15
77.42861 12
77.44833 10
77.46805 10
77.48777 12
77.5075  20
77.52722 23
77.54694 22
77.56666 19
77.58638 13
77.60611 9
77.62582 5
77.64554 3
77.66526 8
77.68499 9
77.70471 10
77.72443 6
77.74415 6
77.76387 5
77.7836  4
77.80332 6
77.82304 11
77.84276 15
77.86248 15
77.88220 13
77.90192 15
77.92164 12
77.94136 9
77.96109 9
77.98081 12
78.00053 16
78.02025 14
78.03997 14
78.0597  16
78.07942 13
78.09913 10
78.11885 9
78.13858 8
78.15830 12
78.17802 11
78.19774 11
78.21746 9
78.23719 8
78.25691 9
78.27663 9
78.29635 4
78.31607 7
78.3358  10
78.35551 10
78.37523 8
78.39495 7
78.41468 8
78.43440 7
78.45412 6
78.47384 11
78.49356 19
78.51329 23
78.53301 25
78.55273 25
78.57245 22
78.59217 19
78.61189 17
78.63161 16
78.65133 17
78.67105 15
78.69078 13
78.71050 7
78.73022 8
78.74994 10
78.76966 12
78.78939 11
78.80911 12
78.82882 12
78.84854 11
78.86827 4
78.88799 12
78.90771 13
78.92743 13
78.94715 13
78.96688 15
78.98660 17
79.00632 20
79.02604 15
79.04576 18
79.06549 13
79.08520 13
79.10492 12
79.12464 9
79.14437 6
79.16409 7
79.18381 4
79.20353 7
79.22325 8
79.24298 14
79.26270 17
79.28242 16
79.30214 15
79.32186 11
79.34158 10
79.36130 11
79.38102 12
79.40074 14
79.42047 17
79.44019 15
79.45991 13
79.47963 6
79.49935 11
79.51908 11
79.53880 10
79.55851 11
79.57823 11
79.59796 7
79.61768 3
79.63740 0
79.65712 2
79.67684 1
79.69657 3
79.71629 2
79.73601 3
79.75573 6
79.77545 11
79.79518 16
79.81489 21
79.83461 21
79.85434 21
79.87406 16
79.89378 13
79.91350 13
79.93322 12
79.95295 10
79.97267 5
79.99239 3
80.01211 9
80.03183 12
80.05155 16
80.07127 19
80.09099 16
80.11071 8
80.13044 5
80.15016 6
80.16988 10
80.18960 13
80.20932 19
80.22905 21
80.24877 17
80.26849 14
80.28820 16
80.30793 13
80.32765 10
80.34737 10
80.36709 11
80.38681 12
80.40654 11
80.42626 12
80.44598 10
80.46570 8
80.48542 3
80.50515 4
80.52486 5
80.54458 8
80.56430 10
80.58403 9
80.60375 13
80.62347 13
80.64319 9
80.66291 12
80.68264 15
80.70236 13
80.72208 9
80.74180 9
80.76152 14
80.78124 15
80.80096 13
80.82068 14
80.84040 12
80.86013 7
80.87985 4
80.89957 6
80.91929 8
80.93901 9
80.95874 8
80.97846 11
80.99818 11
81.01789 10
81.03762 10
81.05734 8
81.07706 6
81.09678 6
81.11650 7
81.13623 13
81.15595 12
81.17567 15
81.19539 18
81.21511 15
81.23484 11
81.25455 11
81.27427 8
81.29399 9
81.31372 10
81.33344 15
81.35316 17
81.37288 16
81.39260 11
81.41233 9
81.43205 4
81.45177 4
81.47149 8
81.49121 12
81.51093 12
81.53065 11
81.55037 6
81.57009 5
81.58982 4
81.60954 5
81.62926 10
81.64898 13
81.66870 16
81.68843 15
81.70815 11
81.72787 10
81.74758 12
81.76731 11
81.78703 17
81.80675 18
81.82647 18
81.84619 16
81.86592 10
81.88564 8
81.90536 5
81.92508 2
81.94480 3
81.96453 6
81.98424 10
82.00396 12
82.02368 11
82.04341 11
82.06313 8
82.08285 4
82.10257 4
82.12229 10
82.14202 14
82.16174 16
82.18146 15
82.20118 16
82.22090 10
82.24062 13
82.26034 17
82.28006 19
82.29978 17
82.31951 15
82.33923 13
82.35895 9
82.37867 4
82.39839 7
82.41812 7
82.43784 5
82.45756 5
82.47728 6
82.49700 5
82.51672 7
82.53644 9
82.55616 13
82.57589 13
82.59561 13
82.61533 14
82.63505 13
82.65477 7
82.6745  7
82.69422 7
82.71393 12
82.73365 13
82.75338 17
82.77310 17
82.79282 15
82.81254 8
82.83226 7
82.85199 10
82.87171 12
82.89143 11
82.91115 14
82.93087 13
82.95059 10
82.97031 3
82.99003 5
83.00975 6
83.02948 10
83.04920 14
83.06892 18
83.08864 17
83.10836 14
83.12809 10
83.14781 8
83.16753 10
83.18725 17
83.20697 22
83.22669 24
83.24641 19
83.26613 12
83.28585 9
83.30558 7
83.32530 9
83.34502 13
83.36474 19
83.38446 21
83.40419 18
83.42391 12
83.44362 10
83.46334 12
83.48307 14
83.50279 17
83.52251 19
83.54223 18
83.56195 12
83.58168 7
83.60140 4
83.62112 6
83.64084 5
83.66056 5
83.68028 8
83.70000 11
83.71972 12
83.73944 12
83.75917 13
83.77889 13
83.79861 11
83.81833 10
83.83805 15
83.85778 15
83.87750 16
83.89722 15
83.91694 16
83.93666 15
83.95638 11
83.97610 12
83.99582 13
84.01554 13
84.03527 16
84.05499 20
84.07471 18
84.09443 16
84.11415 13
84.13388 15
84.15360 13
84.17331 13
84.19303 12
84.21276 8
84.23248 6
84.25220 7
84.27192 12
84.29164 15
84.31137 11
84.33109 14
84.35081 16
84.37053 12
84.39025 13
84.40997 13
84.42969 14
84.44941 12
84.46913 12
84.48886 18
84.50858 20
84.52830 17
84.54802 11
84.56774 9
84.58747 6
84.60719 5
84.62691 10
84.64663 14
84.66635 17
84.68607 17
84.70579 13
84.72551 11
84.74523 6
84.76496 4
84.78468 5
84.80440 8
84.82412 11
84.84384 12
84.86357 12
84.88329 10
84.90300 10
84.92272 7
84.94245 9
84.96217 9
84.98189 10
85.00161 15
85.02133 19
85.04106 20
85.06078 19
85.08050 17
85.10022 16
85.11994 13
85.13966 14
85.15938 17
85.17910 16
85.19883 18
85.21855 18
85.23827 18
85.25799 12
85.27771 9
85.29744 11
85.31716 10
85.33688 8
85.35660 15
85.37632 15
85.39604 14
85.41576 10
85.43548 15
85.45520 16
85.47493 14
85.49465 14
85.51437 15
85.53409 14
85.55381 14
85.57354 15
85.59326 21
85.61298 23
85.63269 24
85.65242 26
85.67214 26
85.69186 21
85.71158 19
85.73130 15
85.75103 14
85.77075 13
85.79047 13
85.81019 10
85.82991 10
85.84964 6
85.86935 11
85.88907 13
85.90879 17
85.92852 21
85.94824 25
85.96796 20
85.98768 19
86.00740 17
86.02713 17
86.04685 19
86.06657 19
86.08629 19
86.10601 19
86.12573 16
86.14545 12
86.16517 14
86.18489 16
86.20462 17
86.22434 14
86.24406 18
86.26378 21
86.28350 22
86.30323 15
86.32295 14
86.34267 15
86.36238 17
86.38211 18
86.40183 21
86.42155 27
86.44127 28
86.46099 25
86.48072 19
86.50044 18
86.52016 16
86.53988 16
86.55960 14
86.57933 18
86.59904 19
86.61876 18
86.63848 12
86.65821 8
86.67793 6
86.69765 4
86.71737 8
86.73709 11
86.75682 12
86.77654 8
86.79626 8
86.81598 8
86.83570 10
86.85542 12
86.87514 16
86.89486 23
86.91458 25
86.93431 22
86.95403 20
86.97375 19
86.99347 16
87.01319 17
87.03292 17
87.05264 25
87.07236 27
87.09207 26
87.11180 19
87.13152 18
87.15124 15
87.17096 12
87.19068 11
87.21041 11
87.23013 14
87.24985 17
87.26957 13
87.28929 13
87.30902 16
87.32873 14
87.34845 18
87.36817 16
87.38790 21
87.40762 20
87.42734 18
87.44706 14
87.46678 14
87.48651 15
87.50623 19
87.52595 19
87.54567 23
87.56539 23
87.58511 21
87.60483 12
87.62455 8
87.64427 11
87.66400 15
87.68372 20
87.70344 25
87.72316 29
87.74288 31
87.76261 25
87.78233 26
87.80204 24
87.82177 19
87.84149 15
87.86121 15
87.88093 17
87.90065 20
87.92038 17
87.94010 21
87.95982 20
87.97954 16
87.99926 14
88.01899 11
88.03871 11
88.05842 8
88.07814 10
88.09787 14
88.11759 17
88.13731 14
88.15703 13
88.17675 10
88.19648 9
88.21620 9
88.23592 16
88.25564 22
88.27536 23
88.29508 23
88.31480 22
88.33452 18
88.35424 11
88.37397 8
88.39369 4
88.41341 5
88.43313 5
88.45285 7
88.47258 10
88.49230 12
88.51202 11
88.53173 11
88.55146 9
88.57118 10
88.59090 14
88.61062 18
88.63034 22
88.65007 26
88.66979 24
88.68951 22
88.70923 23
88.72895 22
88.74868 25
88.76840 27
88.78811 25
88.80783 25
88.82756 20
88.84728 19
88.86700 18
88.88672 17
88.90644 17
88.92617 14
88.94589 11
88.96561 14
88.98533 16
89.00505 19
89.02477 20
89.04449 20
89.06421 15
89.08393 11
89.10366 8
89.12338 12
89.14310 16
89.16282 24
89.18254 29
89.20227 32
89.22199 31
89.24171 28
89.26142 24
89.28115 19
89.30087 17
89.32059 15
89.34031 19
89.36003 23
89.37976 27
89.39948 25
89.41920 24
89.43892 22
89.45864 20
89.47837 15
89.49809 18
89.51780 20
89.53752 22
89.55725 19
89.57697 24
89.59669 27
89.61641 29
89.63613 25
89.65586 21
89.67558 22
89.69530 17
89.71502 18
89.73474 23
89.75446 24
89.77418 29
89.79390 27
89.81362 26
89.83335 24
89.85307 21
89.87279 23
89.89251 20
89.91223 21
89.93196 21
89.95168 21
89.97140 21
89.99111 21
