;content of D:\data\result\mecham\???\20231225-89741\310-01.raw - (Diffrac Plus V4 file)
_FILEVERSION = 3
_SAMPLE
_+SAMPLE
_USER = Lab Manager
_GONIOMETER_CODE = 21
_STAGE_CODE = 7
; Goniometer : D8 theta/theta, stage : Chi drive
_SAMPLE_CHANGER_CODE = 0
_ATTACHMENTS_CODE = 0
_GONIOMETER_RADIUS = 280
_MONOCHROMATOR = 0
; Incident beam monochromator : None
_BETA_FILTER = N
_ANALYZER_CODE = 0
; Received beam analyzer : None
_DATEMEASURED = 25-Dec-2023 09:45:02
_RUNTIME = 11.28583
_WL_UNIT = A
_WL1 = 1.5406
_WL2 = 1.54439
_WL3 = 1.39222
_WLRATIO = 0.5
_ANODE = Cu
_V4_INF_USER = Lab Manager
_V4_INF_CREATOR = V5Converter
_V4_INF_CREATOR_VERSION = 4.4.16.0

; Data for range 1
_DRIVE = COUPLED
_STEPTIME = 57.6
_STEPSIZE = 0.019721
_STEPMODE = C
_START = 20
_THETA = 10
_2THETA = 20
_KHI = 0
_PHI = 0
_DETECTORSLIT = out
_AUX1 = 0
_TIMESTARTED = 0
_KV = 40
_MA = 40
_RANGE_WL = 1.5406
_3DPLANE = 0
_V4_PSD2THETA = 9999
_V4_PSDCHANNEL1 = 0
_V4_PSDAPERTURE = 2.839876
_V4_PSDTYPE = 5
_V4_PSDFIXED = 0
_V4_COUNTERS_MASK = 1
_V4_DRIVES_MASK = 0
_V4_ENCODERS_MASK = 0
_2THETACOUNTS = 1
; 2THETA	Cnt2_D1	
20.000000	140.000000	
20.019721	153.000000	
20.039443	136.000000	
20.059164	126.000000	
20.078885	143.000000	
20.098607	149.000000	
20.118328	138.000000	
20.138050	136.000000	
20.157771	125.000000	
20.177492	157.000000	
20.197214	146.000000	
20.216935	135.000000	
20.236656	154.000000	
20.256378	116.000000	
20.276099	140.000000	
20.295820	143.000000	
20.315542	143.000000	
20.335263	128.000000	
20.354985	127.000000	
20.374706	149.000000	
20.394427	138.000000	
20.414149	137.000000	
20.433870	131.000000	
20.453591	107.000000	
20.473313	146.000000	
20.493034	131.000000	
20.512755	107.000000	
20.532477	140.000000	
20.552198	104.000000	
20.571920	114.000000	
20.591641	140.000000	
20.611362	118.000000	
20.631084	130.000000	
20.650805	152.000000	
20.670526	137.000000	
20.690248	144.000000	
20.709969	144.000000	
20.729690	146.000000	
20.749412	165.000000	
20.769133	140.000000	
20.788855	118.000000	
20.808576	154.000000	
20.828297	159.000000	
20.848019	139.000000	
20.867740	137.000000	
20.887461	139.000000	
20.907183	132.000000	
20.926904	137.000000	
20.946625	129.000000	
20.966347	135.000000	
20.986068	133.000000	
21.005790	122.000000	
21.025511	141.000000	
21.045232	129.000000	
21.064954	130.000000	
21.084675	119.000000	
21.104396	136.000000	
21.124118	143.000000	
21.143839	146.000000	
21.163560	134.000000	
21.183282	128.000000	
21.203003	130.000000	
21.222725	125.000000	
21.242446	128.000000	
21.262167	116.000000	
21.281889	122.000000	
21.301610	139.000000	
21.321331	162.000000	
21.341053	130.000000	
21.360774	123.000000	
21.380495	128.000000	
21.400217	131.000000	
21.419938	134.000000	
21.439660	142.000000	
21.459381	158.000000	
21.479102	139.000000	
21.498824	137.000000	
21.518545	150.000000	
21.538266	144.000000	
21.557988	148.000000	
21.577709	148.000000	
21.597430	126.000000	
21.617152	131.000000	
21.636873	108.000000	
21.656595	140.000000	
21.676316	159.000000	
21.696037	140.000000	
21.715759	142.000000	
21.735480	145.000000	
21.755201	166.000000	
21.774923	131.000000	
21.794644	143.000000	
21.814365	138.000000	
21.834087	137.000000	
21.853808	126.000000	
21.873530	147.000000	
21.893251	147.000000	
21.912972	152.000000	
21.932694	139.000000	
21.952415	142.000000	
21.972136	153.000000	
21.991858	150.000000	
22.011579	135.000000	
22.031300	130.000000	
22.051022	140.000000	
22.070743	127.000000	
22.090465	145.000000	
22.110186	113.000000	
22.129907	145.000000	
22.149629	149.000000	
22.169350	136.000000	
22.189071	120.000000	
22.208793	149.000000	
22.228514	106.000000	
22.248235	134.000000	
22.267957	141.000000	
22.287678	124.000000	
22.307400	126.000000	
22.327121	135.000000	
22.346842	121.000000	
22.366564	131.000000	
22.386285	145.000000	
22.406006	158.000000	
22.425728	146.000000	
22.445449	121.000000	
22.465170	141.000000	
22.484892	135.000000	
22.504613	143.000000	
22.524335	132.000000	
22.544056	151.000000	
22.563777	128.000000	
22.583499	148.000000	
22.603220	129.000000	
22.622941	138.000000	
22.642663	142.000000	
22.662384	123.000000	
22.682105	131.000000	
22.701827	144.000000	
22.721548	157.000000	
22.741270	126.000000	
22.760991	130.000000	
22.780712	125.000000	
22.800434	123.000000	
22.820155	128.000000	
22.839876	144.000000	
22.859598	124.000000	
22.879319	142.000000	
22.899040	148.000000	
22.918762	142.000000	
22.938483	146.000000	
22.958205	119.000000	
22.977926	123.000000	
22.997647	136.000000	
23.017369	139.000000	
23.037090	146.000000	
23.056811	123.000000	
23.076533	134.000000	
23.096254	147.000000	
23.115975	123.000000	
23.135697	134.000000	
23.155418	134.000000	
23.175140	143.000000	
23.194861	125.000000	
23.214582	124.000000	
23.234304	130.000000	
23.254025	125.000000	
23.273746	132.000000	
23.293468	133.000000	
23.313189	128.000000	
23.332910	128.000000	
23.352632	154.000000	
23.372353	139.000000	
23.392075	114.000000	
23.411796	128.000000	
23.431517	137.000000	
23.451239	143.000000	
23.470960	154.000000	
23.490681	132.000000	
23.510403	146.000000	
23.530124	144.000000	
23.549845	122.000000	
23.569567	119.000000	
23.589288	126.000000	
23.609010	131.000000	
23.628731	120.000000	
23.648452	137.000000	
23.668174	139.000000	
23.687895	140.000000	
23.707616	140.000000	
23.727338	143.000000	
23.747059	132.000000	
23.766780	152.000000	
23.786502	119.000000	
23.806223	151.000000	
23.825945	159.000000	
23.845666	164.000000	
23.865387	147.000000	
23.885109	140.000000	
23.904830	129.000000	
23.924551	141.000000	
23.944273	155.000000	
23.963994	116.000000	
23.983715	139.000000	
24.003437	142.000000	
24.023158	188.000000	
24.042880	139.000000	
24.062601	154.000000	
24.082322	158.000000	
24.102044	151.000000	
24.121765	162.000000	
24.141486	164.000000	
24.161208	178.000000	
24.180929	169.000000	
24.200650	192.000000	
24.220372	206.000000	
24.240093	207.000000	
24.259815	243.000000	
24.279536	255.000000	
24.299257	282.000000	
24.318979	301.000000	
24.338700	344.000000	
24.358421	339.000000	
24.378143	370.000000	
24.397864	394.000000	
24.417586	425.000000	
24.437307	468.000000	
24.457028	417.000000	
24.476750	428.000000	
24.496471	414.000000	
24.516192	354.000000	
24.535914	341.000000	
24.555635	278.000000	
24.575356	250.000000	
24.595078	246.000000	
24.614799	216.000000	
24.634521	200.000000	
24.654242	184.000000	
24.673963	170.000000	
24.693685	163.000000	
24.713406	168.000000	
24.733127	150.000000	
24.752849	170.000000	
24.772570	136.000000	
24.792291	159.000000	
24.812013	158.000000	
24.831734	140.000000	
24.851456	166.000000	
24.871177	150.000000	
24.890898	132.000000	
24.910620	126.000000	
24.930341	151.000000	
24.950062	135.000000	
24.969784	129.000000	
24.989505	122.000000	
25.009226	155.000000	
25.028948	135.000000	
25.048669	150.000000	
25.068391	134.000000	
25.088112	139.000000	
25.107833	145.000000	
25.127555	143.000000	
25.147276	152.000000	
25.166997	121.000000	
25.186719	133.000000	
25.206440	117.000000	
25.226161	135.000000	
25.245883	137.000000	
25.265604	137.000000	
25.285326	144.000000	
25.305047	142.000000	
25.324768	139.000000	
25.344490	139.000000	
25.364211	144.000000	
25.383932	143.000000	
25.403654	132.000000	
25.423375	114.000000	
25.443096	147.000000	
25.462818	143.000000	
25.482539	129.000000	
25.502261	142.000000	
25.521982	151.000000	
25.541703	121.000000	
25.561425	131.000000	
25.581146	119.000000	
25.600867	141.000000	
25.620589	115.000000	
25.640310	137.000000	
25.660031	127.000000	
25.679753	112.000000	
25.699474	156.000000	
25.719196	141.000000	
25.738917	150.000000	
25.758638	143.000000	
25.778360	124.000000	
25.798081	138.000000	
25.817802	138.000000	
25.837524	124.000000	
25.857245	139.000000	
25.876966	135.000000	
25.896688	125.000000	
25.916409	130.000000	
25.936131	130.000000	
25.955852	118.000000	
25.975573	132.000000	
25.995295	131.000000	
26.015016	118.000000	
26.034737	139.000000	
26.054459	151.000000	
26.074180	124.000000	
26.093901	147.000000	
26.113623	125.000000	
26.133344	125.000000	
26.153066	120.000000	
26.172787	127.000000	
26.192508	124.000000	
26.212230	147.000000	
26.231951	111.000000	
26.251672	131.000000	
26.271394	123.000000	
26.291115	103.000000	
26.310836	142.000000	
26.330558	141.000000	
26.350279	129.000000	
26.370001	134.000000	
26.389722	128.000000	
26.409443	137.000000	
26.429165	116.000000	
26.448886	138.000000	
26.468607	146.000000	
26.488329	128.000000	
26.508050	116.000000	
26.527771	129.000000	
26.547493	134.000000	
26.567214	149.000000	
26.586936	136.000000	
26.606657	136.000000	
26.626378	139.000000	
26.646100	120.000000	
26.665821	114.000000	
26.685542	144.000000	
26.705264	142.000000	
26.724985	139.000000	
26.744706	122.000000	
26.764428	141.000000	
26.784149	129.000000	
26.803871	128.000000	
26.823592	140.000000	
26.843313	128.000000	
26.863035	114.000000	
26.882756	133.000000	
26.902477	118.000000	
26.922199	126.000000	
26.941920	135.000000	
26.961641	140.000000	
26.981363	123.000000	
27.001084	118.000000	
27.020806	127.000000	
27.040527	139.000000	
27.060248	139.000000	
27.079970	131.000000	
27.099691	134.000000	
27.119412	119.000000	
27.139134	127.000000	
27.158855	146.000000	
27.178576	136.000000	
27.198298	111.000000	
27.218019	156.000000	
27.237741	122.000000	
27.257462	117.000000	
27.277183	119.000000	
27.296905	141.000000	
27.316626	125.000000	
27.336347	144.000000	
27.356069	144.000000	
27.375790	136.000000	
27.395511	135.000000	
27.415233	129.000000	
27.434954	135.000000	
27.454676	128.000000	
27.474397	126.000000	
27.494118	109.000000	
27.513840	131.000000	
27.533561	127.000000	
27.553282	125.000000	
27.573004	150.000000	
27.592725	135.000000	
27.612446	133.000000	
27.632168	125.000000	
27.651889	137.000000	
27.671611	135.000000	
27.691332	138.000000	
27.711053	146.000000	
27.730775	123.000000	
27.750496	144.000000	
27.770217	140.000000	
27.789939	124.000000	
27.809660	116.000000	
27.829381	148.000000	
27.849103	141.000000	
27.868824	150.000000	
27.888546	130.000000	
27.908267	145.000000	
27.927988	105.000000	
27.947710	147.000000	
27.967431	143.000000	
27.987152	154.000000	
28.006874	119.000000	
28.026595	133.000000	
28.046316	122.000000	
28.066038	144.000000	
28.085759	144.000000	
28.105481	148.000000	
28.125202	157.000000	
28.144923	127.000000	
28.164645	118.000000	
28.184366	154.000000	
28.204087	151.000000	
28.223809	148.000000	
28.243530	147.000000	
28.263251	168.000000	
28.282973	134.000000	
28.302694	136.000000	
28.322416	166.000000	
28.342137	124.000000	
28.361858	134.000000	
28.381580	140.000000	
28.401301	115.000000	
28.421022	139.000000	
28.440744	144.000000	
28.460465	129.000000	
28.480186	124.000000	
28.499908	119.000000	
28.519629	128.000000	
28.539351	123.000000	
28.559072	129.000000	
28.578793	133.000000	
28.598515	136.000000	
28.618236	123.000000	
28.637957	133.000000	
28.657679	134.000000	
28.677400	126.000000	
28.697121	132.000000	
28.716843	135.000000	
28.736564	130.000000	
28.756286	144.000000	
28.776007	134.000000	
28.795728	131.000000	
28.815450	129.000000	
28.835171	144.000000	
28.854892	114.000000	
28.874614	115.000000	
28.894335	115.000000	
28.914056	132.000000	
28.933778	122.000000	
28.953499	138.000000	
28.973221	130.000000	
28.992942	127.000000	
29.012663	123.000000	
29.032385	134.000000	
29.052106	126.000000	
29.071827	137.000000	
29.091549	127.000000	
29.111270	138.000000	
29.130991	116.000000	
29.150713	119.000000	
29.170434	131.000000	
29.190156	117.000000	
29.209877	121.000000	
29.229598	152.000000	
29.249320	150.000000	
29.269041	135.000000	
29.288762	133.000000	
29.308484	141.000000	
29.328205	123.000000	
29.347926	113.000000	
29.367648	125.000000	
29.387369	138.000000	
29.407091	137.000000	
29.426812	147.000000	
29.446533	148.000000	
29.466255	121.000000	
29.485976	133.000000	
29.505697	141.000000	
29.525419	105.000000	
29.545140	127.000000	
29.564861	135.000000	
29.584583	120.000000	
29.604304	128.000000	
29.624026	114.000000	
29.643747	131.000000	
29.663468	118.000000	
29.683190	115.000000	
29.702911	134.000000	
29.722632	112.000000	
29.742354	150.000000	
29.762075	121.000000	
29.781796	139.000000	
29.801518	136.000000	
29.821239	133.000000	
29.840961	120.000000	
29.860682	131.000000	
29.880403	149.000000	
29.900125	154.000000	
29.919846	135.000000	
29.939567	112.000000	
29.959289	117.000000	
29.979010	138.000000	
29.998731	151.000000	
30.018453	128.000000	
30.038174	114.000000	
30.057896	125.000000	
30.077617	139.000000	
30.097338	118.000000	
30.117060	136.000000	
30.136781	135.000000	
30.156502	153.000000	
30.176224	134.000000	
30.195945	155.000000	
30.215666	151.000000	
30.235388	127.000000	
30.255109	129.000000	
30.274831	122.000000	
30.294552	147.000000	
30.314273	133.000000	
30.333995	124.000000	
30.353716	133.000000	
30.373437	146.000000	
30.393159	110.000000	
30.412880	104.000000	
30.432601	134.000000	
30.452323	117.000000	
30.472044	136.000000	
30.491766	138.000000	
30.511487	123.000000	
30.531208	145.000000	
30.550930	116.000000	
30.570651	138.000000	
30.590372	123.000000	
30.610094	141.000000	
30.629815	125.000000	
30.649536	112.000000	
30.669258	157.000000	
30.688979	125.000000	
30.708701	118.000000	
30.728422	127.000000	
30.748143	123.000000	
30.767865	127.000000	
30.787586	132.000000	
30.807307	126.000000	
30.827029	129.000000	
30.846750	115.000000	
30.866471	129.000000	
30.886193	142.000000	
30.905914	131.000000	
30.925636	145.000000	
30.945357	119.000000	
30.965078	126.000000	
30.984800	124.000000	
31.004521	124.000000	
31.024242	128.000000	
31.043964	144.000000	
31.063685	126.000000	
31.083406	104.000000	
31.103128	151.000000	
31.122849	117.000000	
31.142571	126.000000	
31.162292	115.000000	
31.182013	134.000000	
31.201735	121.000000	
31.221456	129.000000	
31.241177	138.000000	
31.260899	131.000000	
31.280620	133.000000	
31.300341	140.000000	
31.320063	125.000000	
31.339784	143.000000	
31.359506	124.000000	
31.379227	148.000000	
31.398948	143.000000	
31.418670	128.000000	
31.438391	135.000000	
31.458112	133.000000	
31.477834	123.000000	
31.497555	144.000000	
31.517276	111.000000	
31.536998	131.000000	
31.556719	129.000000	
31.576441	120.000000	
31.596162	123.000000	
31.615883	142.000000	
31.635605	135.000000	
31.655326	117.000000	
31.675047	144.000000	
31.694769	113.000000	
31.714490	134.000000	
31.734211	120.000000	
31.753933	119.000000	
31.773654	125.000000	
31.793376	131.000000	
31.813097	143.000000	
31.832818	125.000000	
31.852540	147.000000	
31.872261	129.000000	
31.891982	146.000000	
31.911704	133.000000	
31.931425	119.000000	
31.951146	162.000000	
31.970868	152.000000	
31.990589	139.000000	
32.010311	119.000000	
32.030032	131.000000	
32.049753	114.000000	
32.069475	125.000000	
32.089196	111.000000	
32.108917	111.000000	
32.128639	113.000000	
32.148360	142.000000	
32.168081	139.000000	
32.187803	140.000000	
32.207524	124.000000	
32.227246	120.000000	
32.246967	119.000000	
32.266688	124.000000	
32.286410	131.000000	
32.306131	129.000000	
32.325852	126.000000	
32.345574	138.000000	
32.365295	160.000000	
32.385016	124.000000	
32.404738	152.000000	
32.424459	121.000000	
32.444181	117.000000	
32.463902	131.000000	
32.483623	151.000000	
32.503345	129.000000	
32.523066	128.000000	
32.542787	121.000000	
32.562509	129.000000	
32.582230	137.000000	
32.601951	119.000000	
32.621673	140.000000	
32.641394	116.000000	
32.661116	142.000000	
32.680837	141.000000	
32.700558	123.000000	
32.720280	139.000000	
32.740001	104.000000	
32.759722	115.000000	
32.779444	144.000000	
32.799165	149.000000	
32.818886	164.000000	
32.838608	128.000000	
32.858329	154.000000	
32.878051	111.000000	
32.897772	135.000000	
32.917493	151.000000	
32.937215	125.000000	
32.956936	121.000000	
32.976657	144.000000	
32.996379	143.000000	
33.016100	148.000000	
33.035821	138.000000	
33.055543	137.000000	
33.075264	161.000000	
33.094986	145.000000	
33.114707	159.000000	
33.134428	154.000000	
33.154150	162.000000	
33.173871	181.000000	
33.193592	192.000000	
33.213314	195.000000	
33.233035	209.000000	
33.252757	244.000000	
33.272478	263.000000	
33.292199	283.000000	
33.311921	274.000000	
33.331642	290.000000	
33.351363	338.000000	
33.371085	383.000000	
33.390806	413.000000	
33.410527	412.000000	
33.430249	443.000000	
33.449970	459.000000	
33.469692	453.000000	
33.489413	486.000000	
33.509134	434.000000	
33.528856	423.000000	
33.548577	398.000000	
33.568298	405.000000	
33.588020	401.000000	
33.607741	333.000000	
33.627462	318.000000	
33.647184	320.000000	
33.666905	274.000000	
33.686627	243.000000	
33.706348	257.000000	
33.726069	215.000000	
33.745791	214.000000	
33.765512	172.000000	
33.785233	188.000000	
33.804955	176.000000	
33.824676	191.000000	
33.844397	150.000000	
33.864119	141.000000	
33.883840	177.000000	
33.903562	142.000000	
33.923283	155.000000	
33.943004	182.000000	
33.962726	156.000000	
33.982447	135.000000	
34.002168	168.000000	
34.021890	145.000000	
34.041611	153.000000	
34.061332	146.000000	
34.081054	120.000000	
34.100775	157.000000	
34.120497	141.000000	
34.140218	131.000000	
34.159939	142.000000	
34.179661	129.000000	
34.199382	146.000000	
34.219103	116.000000	
34.238825	163.000000	
34.258546	141.000000	
34.278267	137.000000	
34.297989	129.000000	
34.317710	138.000000	
34.337432	135.000000	
34.357153	159.000000	
34.376874	132.000000	
34.396596	137.000000	
34.416317	127.000000	
34.436038	130.000000	
34.455760	140.000000	
34.475481	130.000000	
34.495202	123.000000	
34.514924	132.000000	
34.534645	126.000000	
34.554367	132.000000	
34.574088	148.000000	
34.593809	142.000000	
34.613531	139.000000	
34.633252	109.000000	
34.652973	133.000000	
34.672695	127.000000	
34.692416	108.000000	
34.712137	125.000000	
34.731859	122.000000	
34.751580	127.000000	
34.771302	123.000000	
34.791023	118.000000	
34.810744	117.000000	
34.830466	119.000000	
34.850187	140.000000	
34.869908	118.000000	
34.889630	139.000000	
34.909351	121.000000	
34.929072	115.000000	
34.948794	124.000000	
34.968515	133.000000	
34.988237	131.000000	
35.007958	128.000000	
35.027679	131.000000	
35.047401	112.000000	
35.067122	144.000000	
35.086843	135.000000	
35.106565	137.000000	
35.126286	139.000000	
35.146007	141.000000	
35.165729	138.000000	
35.185450	144.000000	
35.205172	137.000000	
35.224893	155.000000	
35.244614	136.000000	
35.264336	142.000000	
35.284057	125.000000	
35.303778	138.000000	
35.323500	150.000000	
35.343221	159.000000	
35.362942	109.000000	
35.382664	138.000000	
35.402385	147.000000	
35.422107	137.000000	
35.441828	126.000000	
35.461549	126.000000	
35.481271	118.000000	
35.500992	140.000000	
35.520713	169.000000	
35.540435	132.000000	
35.560156	146.000000	
35.579877	128.000000	
35.599599	168.000000	
35.619320	182.000000	
35.639042	165.000000	
35.658763	148.000000	
35.678484	174.000000	
35.698206	207.000000	
35.717927	195.000000	
35.737648	200.000000	
35.757370	212.000000	
35.777091	237.000000	
35.796812	248.000000	
35.816534	227.000000	
35.836255	276.000000	
35.855977	281.000000	
35.875698	291.000000	
35.895419	309.000000	
35.915141	346.000000	
35.934862	371.000000	
35.954583	353.000000	
35.974305	340.000000	
35.994026	356.000000	
36.013747	329.000000	
36.033469	356.000000	
36.053190	361.000000	
36.072912	343.000000	
36.092633	305.000000	
36.112354	320.000000	
36.132076	247.000000	
36.151797	262.000000	
36.171518	256.000000	
36.191240	234.000000	
36.210961	219.000000	
36.230682	201.000000	
36.250404	200.000000	
36.270125	167.000000	
36.289847	195.000000	
36.309568	175.000000	
36.329289	167.000000	
36.349011	156.000000	
36.368732	166.000000	
36.388453	126.000000	
36.408175	155.000000	
36.427896	155.000000	
36.447617	145.000000	
36.467339	152.000000	
36.487060	155.000000	
36.506782	146.000000	
36.526503	134.000000	
36.546224	131.000000	
36.565946	153.000000	
36.585667	147.000000	
36.605388	147.000000	
36.625110	128.000000	
36.644831	126.000000	
36.664552	141.000000	
36.684274	142.000000	
36.703995	129.000000	
36.723717	121.000000	
36.743438	126.000000	
36.763159	151.000000	
36.782881	126.000000	
36.802602	138.000000	
36.822323	122.000000	
36.842045	139.000000	
36.861766	126.000000	
36.881487	130.000000	
36.901209	119.000000	
36.920930	145.000000	
36.940652	134.000000	
36.960373	113.000000	
36.980094	134.000000	
36.999816	129.000000	
37.019537	134.000000	
37.039258	141.000000	
37.058980	131.000000	
37.078701	142.000000	
37.098422	116.000000	
37.118144	121.000000	
37.137865	133.000000	
37.157587	121.000000	
37.177308	128.000000	
37.197029	116.000000	
37.216751	130.000000	
37.236472	124.000000	
37.256193	128.000000	
37.275915	132.000000	
37.295636	129.000000	
37.315357	124.000000	
37.335079	127.000000	
37.354800	139.000000	
37.374522	132.000000	
37.394243	125.000000	
37.413964	122.000000	
37.433686	135.000000	
37.453407	134.000000	
37.473128	140.000000	
37.492850	121.000000	
37.512571	153.000000	
37.532292	123.000000	
37.552014	131.000000	
37.571735	122.000000	
37.591457	120.000000	
37.611178	147.000000	
37.630899	130.000000	
37.650621	124.000000	
37.670342	124.000000	
37.690063	122.000000	
37.709785	133.000000	
37.729506	127.000000	
37.749227	134.000000	
37.768949	130.000000	
37.788670	115.000000	
37.808392	138.000000	
37.828113	127.000000	
37.847834	107.000000	
37.867556	118.000000	
37.887277	135.000000	
37.906998	121.000000	
37.926720	139.000000	
37.946441	136.000000	
37.966162	118.000000	
37.985884	128.000000	
38.005605	150.000000	
38.025327	104.000000	
38.045048	118.000000	
38.064769	131.000000	
38.084491	116.000000	
38.104212	150.000000	
38.123933	139.000000	
38.143655	122.000000	
38.163376	107.000000	
38.183097	122.000000	
38.202819	125.000000	
38.222540	123.000000	
38.242262	133.000000	
38.261983	128.000000	
38.281704	110.000000	
38.301426	125.000000	
38.321147	118.000000	
38.340868	134.000000	
38.360590	126.000000	
38.380311	124.000000	
38.400032	110.000000	
38.419754	135.000000	
38.439475	151.000000	
38.459197	130.000000	
38.478918	137.000000	
38.498639	120.000000	
38.518361	136.000000	
38.538082	126.000000	
38.557803	137.000000	
38.577525	90.000000	
38.597246	125.000000	
38.616967	124.000000	
38.636689	125.000000	
38.656410	144.000000	
38.676132	110.000000	
38.695853	111.000000	
38.715574	121.000000	
38.735296	112.000000	
38.755017	127.000000	
38.774738	119.000000	
38.794460	112.000000	
38.814181	121.000000	
38.833902	129.000000	
38.853624	106.000000	
38.873345	133.000000	
38.893067	111.000000	
38.912788	126.000000	
38.932509	116.000000	
38.952231	145.000000	
38.971952	128.000000	
38.991673	125.000000	
39.011395	124.000000	
39.031116	137.000000	
39.050837	100.000000	
39.070559	124.000000	
39.090280	122.000000	
39.110002	120.000000	
39.129723	114.000000	
39.149444	130.000000	
39.169166	125.000000	
39.188887	129.000000	
39.208608	123.000000	
39.228330	151.000000	
39.248051	129.000000	
39.267772	136.000000	
39.287494	112.000000	
39.307215	132.000000	
39.326937	139.000000	
39.346658	149.000000	
39.366379	128.000000	
39.386101	136.000000	
39.405822	121.000000	
39.425543	114.000000	
39.445265	148.000000	
39.464986	139.000000	
39.484707	152.000000	
39.504429	139.000000	
39.524150	141.000000	
39.543872	137.000000	
39.563593	149.000000	
39.583314	133.000000	
39.603036	131.000000	
39.622757	139.000000	
39.642478	146.000000	
39.662200	134.000000	
39.681921	155.000000	
39.701642	130.000000	
39.721364	145.000000	
39.741085	129.000000	
39.760807	124.000000	
39.780528	125.000000	
39.800249	121.000000	
39.819971	119.000000	
39.839692	130.000000	
39.859413	141.000000	
39.879135	142.000000	
39.898856	129.000000	
39.918577	123.000000	
39.938299	121.000000	
39.958020	125.000000	
39.977742	129.000000	
39.997463	158.000000	
40.017184	132.000000	
40.036906	133.000000	
40.056627	115.000000	
40.076348	119.000000	
40.096070	138.000000	
40.115791	121.000000	
40.135512	131.000000	
40.155234	125.000000	
40.174955	93.000000	
40.194677	98.000000	
40.214398	140.000000	
40.234119	107.000000	
40.253841	127.000000	
40.273562	140.000000	
40.293283	115.000000	
40.313005	116.000000	
40.332726	147.000000	
40.352447	155.000000	
40.372169	129.000000	
40.391890	129.000000	
40.411612	122.000000	
40.431333	127.000000	
40.451054	128.000000	
40.470776	150.000000	
40.490497	136.000000	
40.510218	123.000000	
40.529940	110.000000	
40.549661	126.000000	
40.569382	135.000000	
40.589104	116.000000	
40.608825	127.000000	
40.628547	106.000000	
40.648268	127.000000	
40.667989	121.000000	
40.687711	148.000000	
40.707432	129.000000	
40.727153	127.000000	
40.746875	130.000000	
40.766596	145.000000	
40.786317	112.000000	
40.806039	127.000000	
40.825760	115.000000	
40.845482	150.000000	
40.865203	132.000000	
40.884924	139.000000	
40.904646	125.000000	
40.924367	127.000000	
40.944088	143.000000	
40.963810	148.000000	
40.983531	139.000000	
41.003252	169.000000	
41.022974	156.000000	
41.042695	190.000000	
41.062417	150.000000	
41.082138	181.000000	
41.101859	170.000000	
41.121581	222.000000	
41.141302	208.000000	
41.161023	213.000000	
41.180745	199.000000	
41.200466	234.000000	
41.220187	248.000000	
41.239909	251.000000	
41.259630	249.000000	
41.279352	253.000000	
41.299073	255.000000	
41.318794	270.000000	
41.338516	239.000000	
41.358237	249.000000	
41.377958	229.000000	
41.397680	235.000000	
41.417401	238.000000	
41.437122	238.000000	
41.456844	210.000000	
41.476565	218.000000	
41.496287	199.000000	
41.516008	161.000000	
41.535729	208.000000	
41.555451	180.000000	
41.575172	159.000000	
41.594893	177.000000	
41.614615	171.000000	
41.634336	159.000000	
41.654057	163.000000	
41.673779	135.000000	
41.693500	150.000000	
41.713222	156.000000	
41.732943	147.000000	
41.752664	146.000000	
41.772386	154.000000	
41.792107	136.000000	
41.811828	127.000000	
41.831550	124.000000	
41.851271	135.000000	
41.870992	118.000000	
41.890714	135.000000	
41.910435	139.000000	
41.930157	131.000000	
41.949878	139.000000	
41.969599	155.000000	
41.989321	112.000000	
42.009042	138.000000	
42.028763	126.000000	
42.048485	131.000000	
42.068206	147.000000	
42.087928	126.000000	
42.107649	162.000000	
42.127370	122.000000	
42.147092	130.000000	
42.166813	114.000000	
42.186534	151.000000	
42.206256	142.000000	
42.225977	140.000000	
42.245698	130.000000	
42.265420	135.000000	
42.285141	137.000000	
42.304863	161.000000	
42.324584	130.000000	
42.344305	156.000000	
42.364027	146.000000	
42.383748	134.000000	
42.403469	142.000000	
42.423191	127.000000	
42.442912	137.000000	
42.462633	121.000000	
42.482355	146.000000	
42.502076	132.000000	
42.521798	137.000000	
42.541519	133.000000	
42.561240	156.000000	
42.580962	114.000000	
42.600683	158.000000	
42.620404	134.000000	
42.640126	128.000000	
42.659847	131.000000	
42.679568	160.000000	
42.699290	145.000000	
42.719011	135.000000	
42.738733	145.000000	
42.758454	138.000000	
42.778175	112.000000	
42.797897	121.000000	
42.817618	136.000000	
42.837339	132.000000	
42.857061	144.000000	
42.876782	147.000000	
42.896503	125.000000	
42.916225	155.000000	
42.935946	152.000000	
42.955668	148.000000	
42.975389	150.000000	
42.995110	131.000000	
43.014832	132.000000	
43.034553	124.000000	
43.054274	148.000000	
43.073996	154.000000	
43.093717	142.000000	
43.113438	152.000000	
43.133160	145.000000	
43.152881	138.000000	
43.172603	140.000000	
43.192324	143.000000	
43.212045	168.000000	
43.231767	161.000000	
43.251488	171.000000	
43.271209	149.000000	
43.290931	160.000000	
43.310652	164.000000	
43.330373	155.000000	
43.350095	182.000000	
43.369816	178.000000	
43.389538	187.000000	
43.409259	195.000000	
43.428980	229.000000	
43.448702	203.000000	
43.468423	229.000000	
43.488144	259.000000	
43.507866	285.000000	
43.527587	299.000000	
43.547308	419.000000	
43.567030	485.000000	
43.586751	659.000000	
43.606473	893.000000	
43.626194	1282.000000	
43.645915	1846.000000	
43.665637	2556.000000	
43.685358	2987.000000	
43.705079	3535.000000	
43.724801	4216.000000	
43.744522	4550.000000	
43.764243	4561.000000	
43.783965	3962.000000	
43.803686	3355.000000	
43.823408	2795.000000	
43.843129	2656.000000	
43.862850	2578.000000	
43.882572	2061.000000	
43.902293	1627.000000	
43.922014	1097.000000	
43.941736	752.000000	
43.961457	593.000000	
43.981178	414.000000	
44.000900	367.000000	
44.020621	266.000000	
44.040343	281.000000	
44.060064	240.000000	
44.079785	226.000000	
44.099507	206.000000	
44.119228	218.000000	
44.138949	205.000000	
44.158671	207.000000	
44.178392	217.000000	
44.198113	157.000000	
44.217835	192.000000	
44.237556	207.000000	
44.257278	166.000000	
44.276999	189.000000	
44.296720	165.000000	
44.316442	176.000000	
44.336163	168.000000	
44.355884	182.000000	
44.375606	165.000000	
44.395327	159.000000	
44.415048	182.000000	
44.434770	161.000000	
44.454491	154.000000	
44.474213	160.000000	
44.493934	135.000000	
44.513655	133.000000	
44.533377	181.000000	
44.553098	140.000000	
44.572819	132.000000	
44.592541	136.000000	
44.612262	157.000000	
44.631983	154.000000	
44.651705	141.000000	
44.671426	158.000000	
44.691148	139.000000	
44.710869	133.000000	
44.730590	135.000000	
44.750312	124.000000	
44.770033	140.000000	
44.789754	129.000000	
44.809476	130.000000	
44.829197	132.000000	
44.848918	129.000000	
44.868640	148.000000	
44.888361	125.000000	
44.908083	135.000000	
44.927804	112.000000	
44.947525	134.000000	
44.967247	113.000000	
44.986968	133.000000	
45.006689	133.000000	
45.026411	122.000000	
45.046132	139.000000	
45.065853	128.000000	
45.085575	110.000000	
45.105296	131.000000	
45.125018	143.000000	
45.144739	136.000000	
45.164460	137.000000	
45.184182	113.000000	
45.203903	108.000000	
45.223624	143.000000	
45.243346	133.000000	
45.263067	125.000000	
45.282788	123.000000	
45.302510	138.000000	
45.322231	118.000000	
45.341953	144.000000	
45.361674	117.000000	
45.381395	128.000000	
45.401117	117.000000	
45.420838	134.000000	
45.440559	129.000000	
45.460281	129.000000	
45.480002	133.000000	
45.499723	128.000000	
45.519445	134.000000	
45.539166	125.000000	
45.558888	119.000000	
45.578609	141.000000	
45.598330	110.000000	
45.618052	142.000000	
45.637773	114.000000	
45.657494	134.000000	
45.677216	120.000000	
45.696937	128.000000	
45.716658	120.000000	
45.736380	134.000000	
45.756101	130.000000	
45.775823	115.000000	
45.795544	121.000000	
45.815265	139.000000	
45.834987	123.000000	
45.854708	117.000000	
45.874429	111.000000	
45.894151	149.000000	
45.913872	116.000000	
45.933593	151.000000	
45.953315	128.000000	
45.973036	145.000000	
45.992758	107.000000	
46.012479	131.000000	
46.032200	132.000000	
46.051922	124.000000	
46.071643	126.000000	
46.091364	122.000000	
46.111086	113.000000	
46.130807	136.000000	
46.150528	139.000000	
46.170250	154.000000	
46.189971	136.000000	
46.209693	123.000000	
46.229414	136.000000	
46.249135	132.000000	
46.268857	145.000000	
46.288578	125.000000	
46.308299	122.000000	
46.328021	119.000000	
46.347742	111.000000	
46.367463	127.000000	
46.387185	126.000000	
46.406906	126.000000	
46.426628	116.000000	
46.446349	135.000000	
46.466070	125.000000	
46.485792	96.000000	
46.505513	128.000000	
46.525234	134.000000	
46.544956	123.000000	
46.564677	91.000000	
46.584398	137.000000	
46.604120	100.000000	
46.623841	126.000000	
46.643563	114.000000	
46.663284	140.000000	
46.683005	114.000000	
46.702727	129.000000	
46.722448	110.000000	
46.742169	113.000000	
46.761891	128.000000	
46.781612	109.000000	
46.801333	148.000000	
46.821055	104.000000	
46.840776	120.000000	
46.860498	131.000000	
46.880219	133.000000	
46.899940	134.000000	
46.919662	120.000000	
46.939383	119.000000	
46.959104	109.000000	
46.978826	136.000000	
46.998547	130.000000	
47.018268	111.000000	
47.037990	120.000000	
47.057711	105.000000	
47.077433	116.000000	
47.097154	110.000000	
47.116875	129.000000	
47.136597	102.000000	
47.156318	110.000000	
47.176039	124.000000	
47.195761	99.000000	
47.215482	128.000000	
47.235203	118.000000	
47.254925	128.000000	
47.274646	116.000000	
47.294368	121.000000	
47.314089	129.000000	
47.333810	126.000000	
47.353532	138.000000	
47.373253	136.000000	
47.392974	130.000000	
47.412696	134.000000	
47.432417	128.000000	
47.452138	123.000000	
47.471860	94.000000	
47.491581	135.000000	
47.511303	136.000000	
47.531024	124.000000	
47.550745	122.000000	
47.570467	111.000000	
47.590188	109.000000	
47.609909	109.000000	
47.629631	108.000000	
47.649352	123.000000	
47.669073	135.000000	
47.688795	123.000000	
47.708516	122.000000	
47.728238	127.000000	
47.747959	122.000000	
47.767680	117.000000	
47.787402	114.000000	
47.807123	139.000000	
47.826844	126.000000	
47.846566	108.000000	
47.866287	128.000000	
47.886008	113.000000	
47.905730	109.000000	
47.925451	115.000000	
47.945173	113.000000	
47.964894	130.000000	
47.984615	111.000000	
48.004337	131.000000	
48.024058	112.000000	
48.043779	110.000000	
48.063501	108.000000	
48.083222	124.000000	
48.102943	128.000000	
48.122665	115.000000	
48.142386	114.000000	
48.162108	115.000000	
48.181829	122.000000	
48.201550	129.000000	
48.221272	115.000000	
48.240993	139.000000	
48.260714	126.000000	
48.280436	131.000000	
48.300157	106.000000	
48.319878	122.000000	
48.339600	107.000000	
48.359321	124.000000	
48.379043	112.000000	
48.398764	113.000000	
48.418485	128.000000	
48.438207	130.000000	
48.457928	123.000000	
48.477649	111.000000	
48.497371	121.000000	
48.517092	115.000000	
48.536813	125.000000	
48.556535	116.000000	
48.576256	114.000000	
48.595978	122.000000	
48.615699	118.000000	
48.635420	121.000000	
48.655142	118.000000	
48.674863	135.000000	
48.694584	111.000000	
48.714306	106.000000	
48.734027	98.000000	
48.753748	116.000000	
48.773470	114.000000	
48.793191	122.000000	
48.812913	107.000000	
48.832634	127.000000	
48.852355	119.000000	
48.872077	105.000000	
48.891798	130.000000	
48.911519	132.000000	
48.931241	121.000000	
48.950962	130.000000	
48.970683	102.000000	
48.990405	119.000000	
49.010126	134.000000	
49.029848	118.000000	
49.049569	119.000000	
49.069290	113.000000	
49.089012	108.000000	
49.108733	108.000000	
49.128454	135.000000	
49.148176	119.000000	
49.167897	133.000000	
49.187618	123.000000	
49.207340	130.000000	
49.227061	128.000000	
49.246783	124.000000	
49.266504	121.000000	
49.286225	116.000000	
49.305947	110.000000	
49.325668	124.000000	
49.345389	135.000000	
49.365111	128.000000	
49.384832	133.000000	
49.404553	136.000000	
49.424275	109.000000	
49.443996	122.000000	
49.463718	121.000000	
49.483439	127.000000	
49.503160	129.000000	
49.522882	125.000000	
49.542603	133.000000	
49.562324	158.000000	
49.582046	154.000000	
49.601767	130.000000	
49.621488	137.000000	
49.641210	135.000000	
49.660931	147.000000	
49.680653	126.000000	
49.700374	137.000000	
49.720095	151.000000	
49.739817	133.000000	
49.759538	122.000000	
49.779259	137.000000	
49.798981	148.000000	
49.818702	164.000000	
49.838423	149.000000	
49.858145	142.000000	
49.877866	165.000000	
49.897588	182.000000	
49.917309	161.000000	
49.937030	157.000000	
49.956752	200.000000	
49.976473	211.000000	
49.996194	171.000000	
50.015916	200.000000	
50.035637	167.000000	
50.055358	207.000000	
50.075080	160.000000	
50.094801	199.000000	
50.114523	182.000000	
50.134244	174.000000	
50.153965	180.000000	
50.173687	150.000000	
50.193408	177.000000	
50.213129	160.000000	
50.232851	144.000000	
50.252572	151.000000	
50.272293	161.000000	
50.292015	165.000000	
50.311736	170.000000	
50.331458	170.000000	
50.351179	165.000000	
50.370900	147.000000	
50.390622	153.000000	
50.410343	182.000000	
50.430064	143.000000	
50.449786	165.000000	
50.469507	187.000000	
50.489228	179.000000	
50.508950	169.000000	
50.528671	183.000000	
50.548393	210.000000	
50.568114	224.000000	
50.587835	243.000000	
50.607557	275.000000	
50.627278	319.000000	
50.646999	349.000000	
50.666721	407.000000	
50.686442	497.000000	
50.706163	627.000000	
50.725885	777.000000	
50.745606	898.000000	
50.765328	1049.000000	
50.785049	1288.000000	
50.804770	1386.000000	
50.824492	1496.000000	
50.844213	1517.000000	
50.863934	1529.000000	
50.883656	1691.000000	
50.903377	1704.000000	
50.923099	1767.000000	
50.942820	1770.000000	
50.962541	1588.000000	
50.982263	1554.000000	
51.001984	1312.000000	
51.021705	1165.000000	
51.041427	1026.000000	
51.061148	991.000000	
51.080869	835.000000	
51.100591	742.000000	
51.120312	635.000000	
51.140034	557.000000	
51.159755	411.000000	
51.179476	375.000000	
51.199198	343.000000	
51.218919	276.000000	
51.238640	256.000000	
51.258362	204.000000	
51.278083	210.000000	
51.297804	176.000000	
51.317526	170.000000	
51.337247	168.000000	
51.356969	171.000000	
51.376690	146.000000	
51.396411	145.000000	
51.416133	161.000000	
51.435854	139.000000	
51.455575	150.000000	
51.475297	144.000000	
51.495018	153.000000	
51.514739	138.000000	
51.534461	117.000000	
51.554182	126.000000	
51.573904	141.000000	
51.593625	127.000000	
51.613346	114.000000	
51.633068	121.000000	
51.652789	138.000000	
51.672510	124.000000	
51.692232	122.000000	
51.711953	130.000000	
51.731674	115.000000	
51.751396	119.000000	
51.771117	127.000000	
51.790839	130.000000	
51.810560	119.000000	
51.830281	143.000000	
51.850003	119.000000	
51.869724	120.000000	
51.889445	120.000000	
51.909167	137.000000	
51.928888	113.000000	
51.948609	121.000000	
51.968331	130.000000	
51.988052	122.000000	
52.007774	125.000000	
52.027495	92.000000	
52.047216	136.000000	
52.066938	107.000000	
52.086659	125.000000	
52.106380	106.000000	
52.126102	118.000000	
52.145823	118.000000	
52.165544	120.000000	
52.185266	114.000000	
52.204987	139.000000	
52.224709	123.000000	
52.244430	100.000000	
52.264151	125.000000	
52.283873	120.000000	
52.303594	128.000000	
52.323315	118.000000	
52.343037	125.000000	
52.362758	124.000000	
52.382479	118.000000	
52.402201	109.000000	
52.421922	108.000000	
52.441644	112.000000	
52.461365	121.000000	
52.481086	122.000000	
52.500808	88.000000	
52.520529	112.000000	
52.540250	138.000000	
52.559972	107.000000	
52.579693	136.000000	
52.599414	117.000000	
52.619136	112.000000	
52.638857	103.000000	
52.658579	102.000000	
52.678300	107.000000	
52.698021	119.000000	
52.717743	108.000000	
52.737464	122.000000	
52.757185	114.000000	
52.776907	113.000000	
52.796628	112.000000	
52.816349	100.000000	
52.836071	125.000000	
52.855792	130.000000	
52.875514	105.000000	
52.895235	99.000000	
52.914956	95.000000	
52.934678	128.000000	
52.954399	109.000000	
52.974120	121.000000	
52.993842	103.000000	
53.013563	117.000000	
53.033284	93.000000	
53.053006	105.000000	
53.072727	127.000000	
53.092449	108.000000	
53.112170	130.000000	
53.131891	119.000000	
53.151613	104.000000	
53.171334	131.000000	
53.191055	107.000000	
53.210777	119.000000	
53.230498	126.000000	
53.250219	124.000000	
53.269941	106.000000	
53.289662	95.000000	
53.309384	122.000000	
53.329105	105.000000	
53.348826	111.000000	
53.368548	111.000000	
53.388269	125.000000	
53.407990	136.000000	
53.427712	116.000000	
53.447433	117.000000	
53.467154	137.000000	
53.486876	116.000000	
53.506597	112.000000	
53.526319	136.000000	
53.546040	129.000000	
53.565761	111.000000	
53.585483	132.000000	
53.605204	103.000000	
53.624925	126.000000	
53.644647	124.000000	
53.664368	84.000000	
53.684089	122.000000	
53.703811	98.000000	
53.723532	94.000000	
53.743254	106.000000	
53.762975	120.000000	
53.782696	122.000000	
53.802418	115.000000	
53.822139	110.000000	
53.841860	122.000000	
53.861582	138.000000	
53.881303	114.000000	
53.901024	127.000000	
53.920746	128.000000	
53.940467	134.000000	
53.960189	101.000000	
53.979910	128.000000	
53.999631	124.000000	
54.019353	135.000000	
54.039074	121.000000	
54.058795	128.000000	
54.078517	118.000000	
54.098238	125.000000	
54.117959	124.000000	
54.137681	127.000000	
54.157402	119.000000	
54.177124	126.000000	
54.196845	121.000000	
54.216566	117.000000	
54.236288	139.000000	
54.256009	132.000000	
54.275730	126.000000	
54.295452	146.000000	
54.315173	149.000000	
54.334894	161.000000	
54.354616	136.000000	
54.374337	168.000000	
54.394059	177.000000	
54.413780	192.000000	
54.433501	195.000000	
54.453223	202.000000	
54.472944	182.000000	
54.492665	205.000000	
54.512387	175.000000	
54.532108	221.000000	
54.551829	206.000000	
54.571551	219.000000	
54.591272	203.000000	
54.610994	211.000000	
54.630715	221.000000	
54.650436	266.000000	
54.670158	212.000000	
54.689879	231.000000	
54.709600	208.000000	
54.729322	230.000000	
54.749043	201.000000	
54.768764	214.000000	
54.788486	185.000000	
54.808207	215.000000	
54.827929	181.000000	
54.847650	168.000000	
54.867371	181.000000	
54.887093	184.000000	
54.906814	160.000000	
54.926535	185.000000	
54.946257	174.000000	
54.965978	143.000000	
54.985699	142.000000	
55.005421	134.000000	
55.025142	145.000000	
55.044864	134.000000	
55.064585	143.000000	
55.084306	133.000000	
55.104028	119.000000	
55.123749	134.000000	
55.143470	110.000000	
55.163192	118.000000	
55.182913	112.000000	
55.202634	121.000000	
55.222356	132.000000	
55.242077	114.000000	
55.261799	115.000000	
55.281520	122.000000	
55.301241	110.000000	
55.320963	119.000000	
55.340684	134.000000	
55.360405	114.000000	
55.380127	118.000000	
55.399848	100.000000	
55.419569	107.000000	
55.439291	110.000000	
55.459012	108.000000	
55.478734	111.000000	
55.498455	138.000000	
55.518176	121.000000	
55.537898	110.000000	
55.557619	139.000000	
55.577340	113.000000	
55.597062	98.000000	
55.616783	96.000000	
55.636504	109.000000	
55.656226	110.000000	
55.675947	141.000000	
55.695669	105.000000	
55.715390	128.000000	
55.735111	98.000000	
55.754833	118.000000	
55.774554	136.000000	
55.794275	111.000000	
55.813997	114.000000	
55.833718	107.000000	
55.853439	110.000000	
55.873161	105.000000	
55.892882	127.000000	
55.912604	119.000000	
55.932325	138.000000	
55.952046	108.000000	
55.971768	105.000000	
55.991489	128.000000	
56.011210	101.000000	
56.030932	133.000000	
56.050653	126.000000	
56.070374	112.000000	
56.090096	100.000000	
56.109817	140.000000	
56.129539	111.000000	
56.149260	115.000000	
56.168981	131.000000	
56.188703	118.000000	
56.208424	117.000000	
56.228145	106.000000	
56.247867	92.000000	
56.267588	112.000000	
56.287309	127.000000	
56.307031	120.000000	
56.326752	109.000000	
56.346474	110.000000	
56.366195	108.000000	
56.385916	111.000000	
56.405638	110.000000	
56.425359	113.000000	
56.445080	122.000000	
56.464802	112.000000	
56.484523	114.000000	
56.504244	103.000000	
56.523966	94.000000	
56.543687	111.000000	
56.563409	100.000000	
56.583130	110.000000	
56.602851	99.000000	
56.622573	129.000000	
56.642294	116.000000	
56.662015	108.000000	
56.681737	100.000000	
56.701458	108.000000	
56.721179	132.000000	
56.740901	116.000000	
56.760622	105.000000	
56.780344	123.000000	
56.800065	111.000000	
56.819786	121.000000	
56.839508	100.000000	
56.859229	94.000000	
56.878950	101.000000	
56.898672	99.000000	
56.918393	114.000000	
56.938114	96.000000	
56.957836	115.000000	
56.977557	112.000000	
56.997279	107.000000	
57.017000	114.000000	
57.036721	115.000000	
57.056443	119.000000	
57.076164	94.000000	
57.095885	120.000000	
57.115607	127.000000	
57.135328	115.000000	
57.155049	99.000000	
57.174771	127.000000	
57.194492	89.000000	
57.214214	94.000000	
57.233935	106.000000	
57.253656	111.000000	
57.273378	100.000000	
57.293099	115.000000	
57.312820	110.000000	
57.332542	120.000000	
57.352263	118.000000	
57.371984	106.000000	
57.391706	112.000000	
57.411427	135.000000	
57.431149	110.000000	
57.450870	105.000000	
57.470591	125.000000	
57.490313	103.000000	
57.510034	105.000000	
57.529755	96.000000	
57.549477	122.000000	
57.569198	105.000000	
57.588919	107.000000	
57.608641	100.000000	
57.628362	95.000000	
57.648084	115.000000	
57.667805	107.000000	
57.687526	117.000000	
57.707248	95.000000	
57.726969	119.000000	
57.746690	120.000000	
57.766412	108.000000	
57.786133	120.000000	
57.805854	126.000000	
57.825576	130.000000	
57.845297	98.000000	
57.865019	123.000000	
57.884740	122.000000	
57.904461	124.000000	
57.924183	116.000000	
57.943904	106.000000	
57.963625	125.000000	
57.983347	122.000000	
58.003068	111.000000	
58.022789	118.000000	
58.042511	110.000000	
58.062232	153.000000	
58.081954	108.000000	
58.101675	117.000000	
58.121396	136.000000	
58.141118	120.000000	
58.160839	97.000000	
58.180560	123.000000	
58.200282	100.000000	
58.220003	104.000000	
58.239724	97.000000	
58.259446	108.000000	
58.279167	109.000000	
58.298889	118.000000	
58.318610	120.000000	
58.338331	97.000000	
58.358053	111.000000	
58.377774	115.000000	
58.397495	129.000000	
58.417217	112.000000	
58.436938	117.000000	
58.456659	128.000000	
58.476381	119.000000	
58.496102	131.000000	
58.515824	135.000000	
58.535545	118.000000	
58.555266	101.000000	
58.574988	105.000000	
58.594709	111.000000	
58.614430	111.000000	
58.634152	120.000000	
58.653873	120.000000	
58.673594	108.000000	
58.693316	130.000000	
58.713037	121.000000	
58.732759	115.000000	
58.752480	98.000000	
58.772201	108.000000	
58.791923	128.000000	
58.811644	118.000000	
58.831365	113.000000	
58.851087	94.000000	
58.870808	94.000000	
58.890529	102.000000	
58.910251	113.000000	
58.929972	116.000000	
58.949694	110.000000	
58.969415	121.000000	
58.989136	112.000000	
59.008858	120.000000	
59.028579	123.000000	
59.048300	105.000000	
59.068022	104.000000	
59.087743	94.000000	
59.107464	101.000000	
59.127186	110.000000	
59.146907	105.000000	
59.166629	119.000000	
59.186350	106.000000	
59.206071	120.000000	
59.225793	92.000000	
59.245514	89.000000	
59.265235	105.000000	
59.284957	106.000000	
59.304678	103.000000	
59.324399	112.000000	
59.344121	125.000000	
59.363842	124.000000	
59.383564	116.000000	
59.403285	109.000000	
59.423006	106.000000	
59.442728	102.000000	
59.462449	117.000000	
59.482170	108.000000	
59.501892	118.000000	
59.521613	105.000000	
59.541334	104.000000	
59.561056	112.000000	
59.580777	106.000000	
59.600499	101.000000	
59.620220	94.000000	
59.639941	128.000000	
59.659663	125.000000	
59.679384	102.000000	
59.699105	98.000000	
59.718827	101.000000	
59.738548	95.000000	
59.758270	104.000000	
59.777991	111.000000	
59.797712	94.000000	
59.817434	123.000000	
59.837155	109.000000	
59.856876	122.000000	
59.876598	126.000000	
59.896319	109.000000	
59.916040	101.000000	
59.935762	99.000000	
59.955483	97.000000	
59.975205	106.000000	
59.994926	110.000000	
60.014647	110.000000	
60.034369	105.000000	
60.054090	112.000000	
60.073811	112.000000	
60.093533	110.000000	
60.113254	112.000000	
60.132975	128.000000	
60.152697	114.000000	
60.172418	109.000000	
60.192140	113.000000	
60.211861	100.000000	
60.231582	87.000000	
60.251304	116.000000	
60.271025	97.000000	
60.290746	112.000000	
60.310468	114.000000	
60.330189	106.000000	
60.349910	132.000000	
60.369632	124.000000	
60.389353	114.000000	
60.409075	117.000000	
60.428796	111.000000	
60.448517	108.000000	
60.468239	117.000000	
60.487960	100.000000	
60.507681	95.000000	
60.527403	129.000000	
60.547124	107.000000	
60.566845	109.000000	
60.586567	100.000000	
60.606288	117.000000	
60.626010	93.000000	
60.645731	121.000000	
60.665452	88.000000	
60.685174	107.000000	
60.704895	104.000000	
60.724616	91.000000	
60.744338	111.000000	
60.764059	96.000000	
60.783780	116.000000	
60.803502	99.000000	
60.823223	109.000000	
60.842945	118.000000	
60.862666	89.000000	
60.882387	95.000000	
60.902109	108.000000	
60.921830	107.000000	
60.941551	114.000000	
60.961273	111.000000	
60.980994	105.000000	
61.000715	106.000000	
61.020437	107.000000	
61.040158	104.000000	
61.059880	111.000000	
61.079601	104.000000	
61.099322	116.000000	
61.119044	96.000000	
61.138765	99.000000	
61.158486	109.000000	
61.178208	100.000000	
61.197929	118.000000	
61.217650	133.000000	
61.237372	109.000000	
61.257093	102.000000	
61.276815	100.000000	
61.296536	113.000000	
61.316257	114.000000	
61.335979	118.000000	
61.355700	102.000000	
61.375421	108.000000	
61.395143	99.000000	
61.414864	90.000000	
61.434585	95.000000	
61.454307	98.000000	
61.474028	103.000000	
61.493750	112.000000	
61.513471	109.000000	
61.533192	115.000000	
61.552914	129.000000	
61.572635	107.000000	
61.592356	104.000000	
61.612078	98.000000	
61.631799	122.000000	
61.651520	117.000000	
61.671242	102.000000	
61.690963	121.000000	
61.710685	104.000000	
61.730406	116.000000	
61.750127	93.000000	
61.769849	131.000000	
61.789570	116.000000	
61.809291	92.000000	
61.829013	103.000000	
61.848734	100.000000	
61.868455	99.000000	
61.888177	111.000000	
61.907898	110.000000	
61.927620	108.000000	
61.947341	128.000000	
61.967062	100.000000	
61.986784	125.000000	
62.006505	114.000000	
62.026226	126.000000	
62.045948	117.000000	
62.065669	118.000000	
62.085390	109.000000	
62.105112	102.000000	
62.124833	114.000000	
62.144555	108.000000	
62.164276	103.000000	
62.183997	98.000000	
62.203719	118.000000	
62.223440	100.000000	
62.243161	100.000000	
62.262883	90.000000	
62.282604	117.000000	
62.302325	110.000000	
62.322047	104.000000	
62.341768	136.000000	
62.361490	92.000000	
62.381211	115.000000	
62.400932	117.000000	
62.420654	117.000000	
62.440375	105.000000	
62.460096	129.000000	
62.479818	116.000000	
62.499539	115.000000	
62.519260	129.000000	
62.538982	113.000000	
62.558703	113.000000	
62.578425	125.000000	
62.598146	135.000000	
62.617867	125.000000	
62.637589	105.000000	
62.657310	104.000000	
62.677031	138.000000	
62.696753	130.000000	
62.716474	147.000000	
62.736195	149.000000	
62.755917	115.000000	
62.775638	141.000000	
62.795360	132.000000	
62.815081	129.000000	
62.834802	156.000000	
62.854524	164.000000	
62.874245	164.000000	
62.893966	154.000000	
62.913688	169.000000	
62.933409	162.000000	
62.953130	171.000000	
62.972852	157.000000	
62.992573	193.000000	
63.012295	158.000000	
63.032016	197.000000	
63.051737	190.000000	
63.071459	172.000000	
63.091180	150.000000	
63.110901	200.000000	
63.130623	178.000000	
63.150344	181.000000	
63.170065	173.000000	
63.189787	141.000000	
63.209508	153.000000	
63.229230	150.000000	
63.248951	159.000000	
63.268672	167.000000	
63.288394	190.000000	
63.308115	160.000000	
63.327836	165.000000	
63.347558	125.000000	
63.367279	133.000000	
63.387000	164.000000	
63.406722	156.000000	
63.426443	140.000000	
63.446165	130.000000	
63.465886	140.000000	
63.485607	129.000000	
63.505329	130.000000	
63.525050	122.000000	
63.544771	116.000000	
63.564493	112.000000	
63.584214	121.000000	
63.603935	140.000000	
63.623657	121.000000	
63.643378	113.000000	
63.663100	123.000000	
63.682821	142.000000	
63.702542	137.000000	
63.722264	101.000000	
63.741985	109.000000	
63.761706	111.000000	
63.781428	108.000000	
63.801149	101.000000	
63.820870	119.000000	
63.840592	129.000000	
63.860313	100.000000	
63.880035	116.000000	
63.899756	114.000000	
63.919477	127.000000	
63.939199	128.000000	
63.958920	121.000000	
63.978641	111.000000	
63.998363	104.000000	
64.018084	105.000000	
64.037805	127.000000	
64.057527	111.000000	
64.077248	117.000000	
64.096970	105.000000	
64.116691	116.000000	
64.136412	113.000000	
64.156134	116.000000	
64.175855	118.000000	
64.195576	123.000000	
64.215298	103.000000	
64.235019	110.000000	
64.254740	133.000000	
64.274462	127.000000	
64.294183	125.000000	
64.313905	139.000000	
64.333626	120.000000	
64.353347	125.000000	
64.373069	105.000000	
64.392790	123.000000	
64.412511	111.000000	
64.432233	128.000000	
64.451954	130.000000	
64.471675	104.000000	
64.491397	122.000000	
64.511118	127.000000	
64.530840	134.000000	
64.550561	147.000000	
64.570282	148.000000	
64.590004	146.000000	
64.609725	132.000000	
64.629446	135.000000	
64.649168	146.000000	
64.668889	149.000000	
64.688610	141.000000	
64.708332	129.000000	
64.728053	135.000000	
64.747775	130.000000	
64.767496	122.000000	
64.787217	137.000000	
64.806939	136.000000	
64.826660	133.000000	
64.846381	137.000000	
64.866103	143.000000	
64.885824	122.000000	
64.905545	123.000000	
64.925267	148.000000	
64.944988	123.000000	
64.964710	143.000000	
64.984431	127.000000	
65.004152	121.000000	
65.023874	133.000000	
65.043595	117.000000	
65.063316	123.000000	
65.083038	125.000000	
65.102759	106.000000	
65.122480	108.000000	
65.142202	124.000000	
65.161923	122.000000	
65.181645	100.000000	
65.201366	107.000000	
65.221087	122.000000	
65.240809	99.000000	
65.260530	123.000000	
65.280251	90.000000	
65.299973	114.000000	
65.319694	111.000000	
65.339415	104.000000	
65.359137	118.000000	
65.378858	124.000000	
65.398580	135.000000	
65.418301	129.000000	
65.438022	102.000000	
65.457744	120.000000	
65.477465	110.000000	
65.497186	106.000000	
65.516908	104.000000	
65.536629	112.000000	
65.556350	105.000000	
65.576072	109.000000	
65.595793	111.000000	
65.615515	106.000000	
65.635236	106.000000	
65.654957	101.000000	
65.674679	118.000000	
65.694400	97.000000	
65.714121	129.000000	
65.733843	102.000000	
65.753564	102.000000	
65.773285	108.000000	
65.793007	106.000000	
65.812728	109.000000	
65.832450	101.000000	
65.852171	103.000000	
65.871892	139.000000	
65.891614	94.000000	
65.911335	110.000000	
65.931056	126.000000	
65.950778	117.000000	
65.970499	98.000000	
65.990220	102.000000	
66.009942	95.000000	
66.029663	121.000000	
66.049385	99.000000	
66.069106	114.000000	
66.088827	95.000000	
66.108549	109.000000	
66.128270	105.000000	
66.147991	127.000000	
66.167713	115.000000	
66.187434	105.000000	
66.207155	114.000000	
66.226877	103.000000	
66.246598	115.000000	
66.266320	110.000000	
66.286041	115.000000	
66.305762	119.000000	
66.325484	123.000000	
66.345205	103.000000	
66.364926	115.000000	
66.384648	105.000000	
66.404369	113.000000	
66.424090	110.000000	
66.443812	104.000000	
66.463533	103.000000	
66.483255	103.000000	
66.502976	108.000000	
66.522697	126.000000	
66.542419	116.000000	
66.562140	119.000000	
66.581861	102.000000	
66.601583	103.000000	
66.621304	133.000000	
66.641025	105.000000	
66.660747	109.000000	
66.680468	106.000000	
66.700190	115.000000	
66.719911	119.000000	
66.739632	116.000000	
66.759354	106.000000	
66.779075	113.000000	
66.798796	99.000000	
66.818518	92.000000	
66.838239	119.000000	
66.857960	120.000000	
66.877682	103.000000	
66.897403	95.000000	
66.917125	122.000000	
66.936846	102.000000	
66.956567	119.000000	
66.976289	112.000000	
66.996010	89.000000	
67.015731	101.000000	
67.035453	122.000000	
67.055174	112.000000	
67.074895	101.000000	
67.094617	116.000000	
67.114338	112.000000	
67.134060	122.000000	
67.153781	89.000000	
67.173502	129.000000	
67.193224	133.000000	
67.212945	108.000000	
67.232666	121.000000	
67.252388	113.000000	
67.272109	113.000000	
67.291830	124.000000	
67.311552	117.000000	
67.331273	110.000000	
67.350995	104.000000	
67.370716	92.000000	
67.390437	101.000000	
67.410159	117.000000	
67.429880	101.000000	
67.449601	106.000000	
67.469323	114.000000	
67.489044	120.000000	
67.508765	111.000000	
67.528487	109.000000	
67.548208	101.000000	
67.567930	114.000000	
67.587651	111.000000	
67.607372	112.000000	
67.627094	123.000000	
67.646815	94.000000	
67.666536	114.000000	
67.686258	106.000000	
67.705979	109.000000	
67.725700	95.000000	
67.745422	105.000000	
67.765143	106.000000	
67.784865	110.000000	
67.804586	111.000000	
67.824307	118.000000	
67.844029	104.000000	
67.863750	116.000000	
67.883471	94.000000	
67.903193	112.000000	
67.922914	98.000000	
67.942635	108.000000	
67.962357	106.000000	
67.982078	109.000000	
68.001800	111.000000	
68.021521	95.000000	
68.041242	126.000000	
68.060964	107.000000	
68.080685	104.000000	
68.100406	106.000000	
68.120128	113.000000	
68.139849	94.000000	
68.159570	118.000000	
68.179292	95.000000	
68.199013	111.000000	
68.218735	120.000000	
68.238456	114.000000	
68.258177	115.000000	
68.277899	113.000000	
68.297620	106.000000	
68.317341	113.000000	
68.337063	116.000000	
68.356784	105.000000	
68.376505	113.000000	
68.396227	108.000000	
68.415948	121.000000	
68.435670	101.000000	
68.455391	101.000000	
68.475112	111.000000	
68.494834	101.000000	
68.514555	109.000000	
68.534276	103.000000	
68.553998	112.000000	
68.573719	120.000000	
68.593441	107.000000	
68.613162	104.000000	
68.632883	88.000000	
68.652605	108.000000	
68.672326	89.000000	
68.692047	106.000000	
68.711769	119.000000	
68.731490	113.000000	
68.751211	143.000000	
68.770933	110.000000	
68.790654	118.000000	
68.810376	118.000000	
68.830097	122.000000	
68.849818	105.000000	
68.869540	114.000000	
68.889261	109.000000	
68.908982	113.000000	
68.928704	125.000000	
68.948425	114.000000	
68.968146	113.000000	
68.987868	122.000000	
69.007589	97.000000	
69.027311	95.000000	
69.047032	101.000000	
69.066753	125.000000	
69.086475	106.000000	
69.106196	123.000000	
69.125917	89.000000	
69.145639	111.000000	
69.165360	107.000000	
69.185081	110.000000	
69.204803	125.000000	
69.224524	102.000000	
69.244246	122.000000	
69.263967	103.000000	
69.283688	105.000000	
69.303410	118.000000	
69.323131	96.000000	
69.342852	137.000000	
69.362574	118.000000	
69.382295	112.000000	
69.402016	108.000000	
69.421738	104.000000	
69.441459	105.000000	
69.461181	120.000000	
69.480902	109.000000	
69.500623	121.000000	
69.520345	102.000000	
69.540066	101.000000	
69.559787	119.000000	
69.579509	112.000000	
69.599230	94.000000	
69.618951	98.000000	
69.638673	97.000000	
69.658394	82.000000	
69.678116	113.000000	
69.697837	106.000000	
69.717558	108.000000	
69.737280	125.000000	
69.757001	108.000000	
69.776722	106.000000	
69.796444	121.000000	
69.816165	114.000000	
69.835886	122.000000	
69.855608	107.000000	
69.875329	119.000000	
69.895051	105.000000	
69.914772	104.000000	
69.934493	104.000000	
69.954215	115.000000	
69.973936	103.000000	
69.993657	119.000000	
70.013379	113.000000	
70.033100	107.000000	
70.052821	101.000000	
70.072543	104.000000	
70.092264	94.000000	
70.111986	113.000000	
70.131707	100.000000	
70.151428	119.000000	
70.171150	115.000000	
70.190871	105.000000	
70.210592	105.000000	
70.230314	97.000000	
70.250035	122.000000	
70.269756	114.000000	
70.289478	112.000000	
70.309199	106.000000	
70.328921	128.000000	
70.348642	142.000000	
70.368363	109.000000	
70.388085	100.000000	
70.407806	106.000000	
70.427527	99.000000	
70.447249	143.000000	
70.466970	115.000000	
70.486691	82.000000	
70.506413	122.000000	
70.526134	100.000000	
70.545856	114.000000	
70.565577	104.000000	
70.585298	115.000000	
70.605020	105.000000	
70.624741	103.000000	
70.644462	115.000000	
70.664184	110.000000	
70.683905	103.000000	
70.703626	110.000000	
70.723348	124.000000	
70.743069	104.000000	
70.762791	101.000000	
70.782512	118.000000	
70.802233	117.000000	
70.821955	101.000000	
70.841676	101.000000	
70.861397	138.000000	
70.881119	101.000000	
70.900840	109.000000	
70.920561	102.000000	
70.940283	105.000000	
70.960004	129.000000	
70.979726	107.000000	
70.999447	93.000000	
71.019168	104.000000	
71.038890	115.000000	
71.058611	109.000000	
71.078332	98.000000	
71.098054	106.000000	
71.117775	122.000000	
71.137496	127.000000	
71.157218	111.000000	
71.176939	108.000000	
71.196661	108.000000	
71.216382	118.000000	
71.236103	120.000000	
71.255825	114.000000	
71.275546	112.000000	
71.295267	108.000000	
71.314989	89.000000	
71.334710	100.000000	
71.354431	106.000000	
71.374153	102.000000	
71.393874	108.000000	
71.413596	111.000000	
71.433317	95.000000	
71.453038	121.000000	
71.472760	129.000000	
71.492481	104.000000	
71.512202	103.000000	
71.531924	97.000000	
71.551645	114.000000	
71.571366	106.000000	
71.591088	111.000000	
71.610809	121.000000	
71.630531	108.000000	
71.650252	90.000000	
71.669973	129.000000	
71.689695	94.000000	
71.709416	106.000000	
71.729137	119.000000	
71.748859	111.000000	
71.768580	114.000000	
71.788301	101.000000	
71.808023	118.000000	
71.827744	95.000000	
71.847466	118.000000	
71.867187	104.000000	
71.886908	115.000000	
71.906630	111.000000	
71.926351	108.000000	
71.946072	123.000000	
71.965794	115.000000	
71.985515	91.000000	
72.005236	114.000000	
72.024958	112.000000	
72.044679	135.000000	
72.064401	97.000000	
72.084122	129.000000	
72.103843	117.000000	
72.123565	98.000000	
72.143286	112.000000	
72.163007	104.000000	
72.182729	111.000000	
72.202450	140.000000	
72.222171	118.000000	
72.241893	110.000000	
72.261614	112.000000	
72.281336	120.000000	
72.301057	116.000000	
72.320778	115.000000	
72.340500	127.000000	
72.360221	100.000000	
72.379942	114.000000	
72.399664	104.000000	
72.419385	112.000000	
72.439106	108.000000	
72.458828	124.000000	
72.478549	112.000000	
72.498271	98.000000	
72.517992	127.000000	
72.537713	121.000000	
72.557435	120.000000	
72.577156	118.000000	
72.596877	130.000000	
72.616599	109.000000	
72.636320	128.000000	
72.656041	130.000000	
72.675763	106.000000	
72.695484	116.000000	
72.715206	115.000000	
72.734927	120.000000	
72.754648	130.000000	
72.774370	136.000000	
72.794091	122.000000	
72.813812	119.000000	
72.833534	104.000000	
72.853255	116.000000	
72.872976	125.000000	
72.892698	120.000000	
72.912419	106.000000	
72.932141	136.000000	
72.951862	119.000000	
72.971583	127.000000	
72.991305	118.000000	
73.011026	114.000000	
73.030747	126.000000	
73.050469	124.000000	
73.070190	112.000000	
73.089911	120.000000	
73.109633	102.000000	
73.129354	115.000000	
73.149076	103.000000	
73.168797	111.000000	
73.188518	116.000000	
73.208240	101.000000	
73.227961	112.000000	
73.247682	114.000000	
73.267404	141.000000	
73.287125	115.000000	
73.306846	127.000000	
73.326568	133.000000	
73.346289	112.000000	
73.366011	107.000000	
73.385732	124.000000	
73.405453	117.000000	
73.425175	113.000000	
73.444896	100.000000	
73.464617	127.000000	
73.484339	118.000000	
73.504060	117.000000	
73.523781	103.000000	
73.543503	106.000000	
73.563224	108.000000	
73.582946	108.000000	
73.602667	101.000000	
73.622388	121.000000	
73.642110	126.000000	
73.661831	109.000000	
73.681552	116.000000	
73.701274	124.000000	
73.720995	126.000000	
73.740716	100.000000	
73.760438	117.000000	
73.780159	130.000000	
73.799881	103.000000	
73.819602	113.000000	
73.839323	118.000000	
73.859045	117.000000	
73.878766	115.000000	
73.898487	124.000000	
73.918209	134.000000	
73.937930	113.000000	
73.957651	128.000000	
73.977373	129.000000	
73.997094	130.000000	
74.016816	122.000000	
74.036537	108.000000	
74.056258	120.000000	
74.075980	119.000000	
74.095701	114.000000	
74.115422	104.000000	
74.135144	130.000000	
74.154865	122.000000	
74.174586	106.000000	
74.194308	107.000000	
74.214029	111.000000	
74.233751	90.000000	
74.253472	129.000000	
74.273193	123.000000	
74.292915	137.000000	
74.312636	136.000000	
74.332357	107.000000	
74.352079	137.000000	
74.371800	126.000000	
74.391521	134.000000	
74.411243	148.000000	
74.430964	153.000000	
74.450686	157.000000	
74.470407	160.000000	
74.490128	140.000000	
74.509850	174.000000	
74.529571	177.000000	
74.549292	211.000000	
74.569014	212.000000	
74.588735	224.000000	
74.608456	284.000000	
74.628178	363.000000	
74.647899	379.000000	
74.667621	568.000000	
74.687342	605.000000	
74.707063	830.000000	
74.726785	946.000000	
74.746506	960.000000	
74.766227	872.000000	
74.785949	762.000000	
74.805670	633.000000	
74.825391	622.000000	
74.845113	639.000000	
74.864834	628.000000	
74.884556	667.000000	
74.904277	707.000000	
74.923998	729.000000	
74.943720	711.000000	
74.963441	740.000000	
74.983162	627.000000	
75.002884	530.000000	
75.022605	454.000000	
75.042326	424.000000	
75.062048	376.000000	
75.081769	331.000000	
75.101491	317.000000	
75.121212	294.000000	
75.140933	305.000000	
75.160655	248.000000	
75.180376	208.000000	
75.200097	247.000000	
75.219819	189.000000	
75.239540	160.000000	
75.259261	173.000000	
75.278983	151.000000	
75.298704	147.000000	
75.318426	123.000000	
75.338147	149.000000	
75.357868	120.000000	
75.377590	130.000000	
75.397311	153.000000	
75.417032	118.000000	
75.436754	121.000000	
75.456475	123.000000	
75.476196	128.000000	
75.495918	119.000000	
75.515639	116.000000	
75.535361	112.000000	
75.555082	113.000000	
75.574803	102.000000	
75.594525	105.000000	
75.614246	102.000000	
75.633967	106.000000	
75.653689	109.000000	
75.673410	89.000000	
75.693131	109.000000	
75.712853	93.000000	
75.732574	123.000000	
75.752296	133.000000	
75.772017	107.000000	
75.791738	110.000000	
75.811460	136.000000	
75.831181	109.000000	
75.850902	116.000000	
75.870624	112.000000	
75.890345	123.000000	
75.910066	115.000000	
75.929788	102.000000	
75.949509	119.000000	
75.969231	114.000000	
75.988952	115.000000	
76.008673	123.000000	
76.028395	121.000000	
76.048116	119.000000	
76.067837	129.000000	
76.087559	113.000000	
76.107280	113.000000	
76.127001	109.000000	
76.146723	129.000000	
76.166444	110.000000	
76.186166	126.000000	
76.205887	110.000000	
76.225608	116.000000	
76.245330	132.000000	
76.265051	118.000000	
76.284772	114.000000	
76.304494	111.000000	
76.324215	131.000000	
76.343936	133.000000	
76.363658	128.000000	
76.383379	116.000000	
76.403101	118.000000	
76.422822	92.000000	
76.442543	105.000000	
76.462265	103.000000	
76.481986	126.000000	
76.501707	121.000000	
76.521429	112.000000	
76.541150	114.000000	
76.560871	113.000000	
76.580593	110.000000	
76.600314	111.000000	
76.620036	126.000000	
76.639757	119.000000	
76.659478	106.000000	
76.679200	121.000000	
76.698921	121.000000	
76.718642	114.000000	
76.738364	126.000000	
76.758085	137.000000	
76.777806	102.000000	
76.797528	121.000000	
76.817249	121.000000	
76.836971	125.000000	
76.856692	124.000000	
76.876413	115.000000	
76.896135	108.000000	
76.915856	107.000000	
76.935577	104.000000	
76.955299	102.000000	
76.975020	108.000000	
76.994741	108.000000	
77.014463	92.000000	
77.034184	113.000000	
77.053906	117.000000	
77.073627	95.000000	
77.093348	120.000000	
77.113070	105.000000	
77.132791	111.000000	
77.152512	110.000000	
77.172234	119.000000	
77.191955	130.000000	
77.211676	110.000000	
77.231398	136.000000	
77.251119	102.000000	
77.270841	115.000000	
77.290562	105.000000	
77.310283	111.000000	
77.330005	106.000000	
77.349726	110.000000	
77.369447	112.000000	
77.389169	132.000000	
77.408890	125.000000	
77.428612	118.000000	
77.448333	98.000000	
77.468054	123.000000	
77.487776	99.000000	
77.507497	124.000000	
77.527218	125.000000	
77.546940	122.000000	
77.566661	132.000000	
77.586382	104.000000	
77.606104	111.000000	
77.625825	97.000000	
77.645547	110.000000	
77.665268	110.000000	
77.684989	106.000000	
77.704711	112.000000	
77.724432	117.000000	
77.744153	111.000000	
77.763875	94.000000	
77.783596	97.000000	
77.803317	122.000000	
77.823039	103.000000	
77.842760	115.000000	
77.862482	116.000000	
77.882203	114.000000	
77.901924	111.000000	
77.921646	104.000000	
77.941367	116.000000	
77.961088	119.000000	
77.980810	100.000000	
78.000531	103.000000	
78.020252	118.000000	
78.039974	125.000000	
78.059695	114.000000	
78.079417	105.000000	
78.099138	120.000000	
78.118859	115.000000	
78.138581	104.000000	
78.158302	112.000000	
78.178023	113.000000	
78.197745	107.000000	
78.217466	126.000000	
78.237187	102.000000	
78.256909	87.000000	
78.276630	111.000000	
78.296352	121.000000	
78.316073	105.000000	
78.335794	103.000000	
78.355516	101.000000	
78.375237	120.000000	
78.394958	120.000000	
78.414680	101.000000	
78.434401	100.000000	
78.454122	108.000000	
78.473844	117.000000	
78.493565	113.000000	
78.513287	121.000000	
78.533008	133.000000	
78.552729	122.000000	
78.572451	113.000000	
78.592172	123.000000	
78.611893	98.000000	
78.631615	107.000000	
78.651336	117.000000	
78.671057	114.000000	
78.690779	115.000000	
78.710500	118.000000	
78.730222	104.000000	
78.749943	99.000000	
78.769664	114.000000	
78.789386	153.000000	
78.809107	108.000000	
78.828828	109.000000	
78.848550	102.000000	
78.868271	119.000000	
78.887992	101.000000	
78.907714	114.000000	
78.927435	99.000000	
78.947157	127.000000	
78.966878	98.000000	
78.986599	116.000000	
79.006321	120.000000	
79.026042	132.000000	
79.045763	114.000000	
79.065485	112.000000	
79.085206	93.000000	
79.104927	128.000000	
79.124649	103.000000	
79.144370	118.000000	
79.164092	86.000000	
79.183813	100.000000	
79.203534	100.000000	
79.223256	123.000000	
79.242977	101.000000	
79.262698	120.000000	
79.282420	123.000000	
79.302141	120.000000	
79.321862	105.000000	
79.341584	104.000000	
79.361305	106.000000	
79.381027	102.000000	
79.400748	124.000000	
79.420469	107.000000	
79.440191	106.000000	
79.459912	119.000000	
79.479633	113.000000	
79.499355	98.000000	
79.519076	112.000000	
79.538797	114.000000	
79.558519	128.000000	
79.578240	93.000000	
79.597962	105.000000	
79.617683	102.000000	
79.637404	94.000000	
79.657126	100.000000	
79.676847	95.000000	
79.696568	108.000000	
79.716290	92.000000	
79.736011	104.000000	
79.755732	102.000000	
79.775454	98.000000	
79.795175	128.000000	
79.814897	122.000000	
79.834618	122.000000	
79.854339	115.000000	
79.874061	113.000000	
79.893782	98.000000	
79.913503	113.000000	
79.933225	105.000000	
79.952946	111.000000	
79.972667	108.000000	
79.992389	94.000000	
80.012110	94.000000	
80.031832	97.000000	
80.051553	142.000000	
80.071274	103.000000	
80.090996	108.000000	
80.110717	114.000000	
80.130438	97.000000	
80.150160	91.000000	
80.169881	108.000000	
80.189602	137.000000	
80.209324	104.000000	
80.229045	112.000000	
80.248767	116.000000	
80.268488	117.000000	
80.288209	121.000000	
80.307931	107.000000	
80.327652	118.000000	
80.347373	110.000000	
80.367095	108.000000	
80.386816	101.000000	
80.406537	114.000000	
80.426259	116.000000	
80.445980	114.000000	
80.465702	115.000000	
80.485423	84.000000	
80.505144	97.000000	
80.524866	105.000000	
80.544587	99.000000	
80.564308	124.000000	
80.584030	116.000000	
80.603751	96.000000	
80.623472	102.000000	
80.643194	112.000000	
80.662915	131.000000	
80.682637	104.000000	
80.702358	105.000000	
80.722079	119.000000	
80.741801	104.000000	
80.761522	85.000000	
80.781243	111.000000	
80.800965	131.000000	
80.820686	113.000000	
80.840407	110.000000	
80.860129	99.000000	
80.879850	106.000000	
80.899572	105.000000	
80.919293	107.000000	
80.939014	107.000000	
80.958736	100.000000	
80.978457	116.000000	
80.998178	91.000000	
81.017900	114.000000	
81.037621	124.000000	
81.057342	93.000000	
81.077064	110.000000	
81.096785	101.000000	
81.116507	92.000000	
81.136228	107.000000	
81.155949	124.000000	
81.175671	109.000000	
81.195392	121.000000	
81.215113	101.000000	
81.234835	121.000000	
81.254556	114.000000	
81.274277	104.000000	
81.293999	104.000000	
81.313720	109.000000	
81.333442	109.000000	
81.353163	116.000000	
81.372884	123.000000	
81.392606	111.000000	
81.412327	94.000000	
81.432048	110.000000	
81.451770	100.000000	
81.471491	116.000000	
81.491212	109.000000	
81.510934	112.000000	
81.530655	112.000000	
81.550377	106.000000	
81.570098	97.000000	
81.589819	97.000000	
81.609541	110.000000	
81.629262	115.000000	
81.648983	113.000000	
81.668705	109.000000	
81.688426	115.000000	
81.708147	109.000000	
81.727869	111.000000	
81.747590	105.000000	
81.767312	110.000000	
81.787033	123.000000	
81.806754	116.000000	
81.826476	105.000000	
81.846197	127.000000	
81.865918	93.000000	
81.885640	109.000000	
81.905361	106.000000	
81.925082	99.000000	
81.944804	109.000000	
81.964525	104.000000	
81.984247	105.000000	
82.003968	104.000000	
82.023689	129.000000	
82.043411	117.000000	
82.063132	101.000000	
82.082853	94.000000	
82.102575	113.000000	
82.122296	89.000000	
82.142017	111.000000	
82.161739	125.000000	
82.181460	109.000000	
82.201182	103.000000	
82.220903	109.000000	
82.240624	110.000000	
82.260346	114.000000	
82.280067	117.000000	
82.299788	134.000000	
82.319510	102.000000	
82.339231	102.000000	
82.358952	104.000000	
82.378674	103.000000	
82.398395	113.000000	
82.418117	99.000000	
82.437838	105.000000	
82.457559	109.000000	
82.477281	86.000000	
82.497002	100.000000	
82.516723	115.000000	
82.536445	101.000000	
82.556166	101.000000	
82.575887	121.000000	
82.595609	95.000000	
82.615330	109.000000	
82.635052	108.000000	
82.654773	113.000000	
82.674494	99.000000	
82.694216	104.000000	
82.713937	91.000000	
82.733658	112.000000	
82.753380	121.000000	
82.773101	122.000000	
82.792822	99.000000	
82.812544	116.000000	
82.832265	108.000000	
82.851987	96.000000	
82.871708	106.000000	
82.891429	128.000000	
82.911151	114.000000	
82.930872	100.000000	
82.950593	105.000000	
82.970315	107.000000	
82.990036	105.000000	
83.009757	111.000000	
83.029479	91.000000	
83.049200	116.000000	
83.068922	97.000000	
83.088643	123.000000	
83.108364	105.000000	
83.128086	105.000000	
83.147807	96.000000	
83.167528	109.000000	
83.187250	117.000000	
83.206971	114.000000	
83.226692	129.000000	
83.246414	112.000000	
83.266135	111.000000	
83.285857	95.000000	
83.305578	83.000000	
83.325299	111.000000	
83.345021	128.000000	
83.364742	95.000000	
83.384463	108.000000	
83.404185	117.000000	
83.423906	119.000000	
83.443627	110.000000	
83.463349	97.000000	
83.483070	113.000000	
83.502792	128.000000	
83.522513	130.000000	
83.542234	108.000000	
83.561956	102.000000	
83.581677	101.000000	
83.601398	107.000000	
83.621120	101.000000	
83.640841	115.000000	
83.660562	108.000000	
83.680284	106.000000	
83.700005	98.000000	
83.719727	104.000000	
83.739448	124.000000	
83.759169	116.000000	
83.778891	111.000000	
83.798612	94.000000	
83.818333	118.000000	
83.838055	104.000000	
83.857776	108.000000	
83.877497	111.000000	
83.897219	114.000000	
83.916940	101.000000	
83.936662	117.000000	
83.956383	108.000000	
83.976104	106.000000	
83.995826	114.000000	
84.015547	102.000000	
84.035268	122.000000	
84.054990	111.000000	
84.074711	92.000000	
84.094432	114.000000	
84.114154	113.000000	
84.133875	98.000000	
84.153597	116.000000	
84.173318	114.000000	
84.193039	115.000000	
84.212761	89.000000	
84.232482	108.000000	
84.252203	96.000000	
84.271925	89.000000	
84.291646	135.000000	
84.311367	116.000000	
84.331089	96.000000	
84.350810	101.000000	
84.370532	94.000000	
84.390253	131.000000	
84.409974	115.000000	
84.429696	100.000000	
84.449417	107.000000	
84.469138	100.000000	
84.488860	116.000000	
84.508581	106.000000	
84.528302	124.000000	
84.548024	110.000000	
84.567745	98.000000	
84.587467	99.000000	
84.607188	94.000000	
84.626909	116.000000	
84.646631	108.000000	
84.666352	119.000000	
84.686073	106.000000	
84.705795	112.000000	
84.725516	108.000000	
84.745237	104.000000	
84.764959	83.000000	
84.784680	106.000000	
84.804402	106.000000	
84.824123	102.000000	
84.843844	109.000000	
84.863566	98.000000	
84.883287	96.000000	
84.903008	101.000000	
84.922730	109.000000	
84.942451	108.000000	
84.962172	106.000000	
84.981894	87.000000	
85.001615	112.000000	
85.021337	104.000000	
85.041058	113.000000	
85.060779	121.000000	
85.080501	106.000000	
85.100222	104.000000	
85.119943	109.000000	
85.139665	113.000000	
85.159386	108.000000	
85.179107	104.000000	
85.198829	118.000000	
85.218550	103.000000	
85.238272	102.000000	
85.257993	129.000000	
85.277714	98.000000	
85.297436	90.000000	
85.317157	99.000000	
85.336878	123.000000	
85.356600	89.000000	
85.376321	104.000000	
85.396042	107.000000	
85.415764	115.000000	
85.435485	99.000000	
85.455207	116.000000	
85.474928	112.000000	
85.494649	116.000000	
85.514371	105.000000	
85.534092	103.000000	
85.553813	113.000000	
85.573535	100.000000	
85.593256	117.000000	
85.612977	112.000000	
85.632699	116.000000	
85.652420	126.000000	
85.672142	115.000000	
85.691863	114.000000	
85.711584	111.000000	
85.731306	112.000000	
85.751027	87.000000	
85.770748	123.000000	
85.790470	82.000000	
85.810191	110.000000	
85.829912	110.000000	
85.849634	103.000000	
85.869355	93.000000	
85.889077	115.000000	
85.908798	114.000000	
85.928519	129.000000	
85.948241	122.000000	
85.967962	117.000000	
85.987683	110.000000	
86.007405	114.000000	
86.027126	84.000000	
86.046848	121.000000	
86.066569	114.000000	
86.086290	107.000000	
86.106012	109.000000	
86.125733	99.000000	
86.145454	109.000000	
86.165176	104.000000	
86.184897	112.000000	
86.204618	102.000000	
86.224340	131.000000	
86.244061	112.000000	
86.263783	105.000000	
86.283504	105.000000	
86.303225	130.000000	
86.322947	115.000000	
86.342668	101.000000	
86.362389	92.000000	
86.382111	120.000000	
86.401832	125.000000	
86.421553	88.000000	
86.441275	111.000000	
86.460996	104.000000	
86.480718	134.000000	
86.500439	111.000000	
86.520160	107.000000	
86.539882	93.000000	
86.559603	123.000000	
86.579324	108.000000	
86.599046	118.000000	
86.618767	101.000000	
86.638488	104.000000	
86.658210	108.000000	
86.677931	102.000000	
86.697653	98.000000	
86.717374	100.000000	
86.737095	114.000000	
86.756817	103.000000	
86.776538	118.000000	
86.796259	90.000000	
86.815981	76.000000	
86.835702	83.000000	
86.855423	124.000000	
86.875145	112.000000	
86.894866	107.000000	
86.914588	118.000000	
86.934309	101.000000	
86.954030	130.000000	
86.973752	95.000000	
86.993473	98.000000	
87.013194	100.000000	
87.032916	119.000000	
87.052637	114.000000	
87.072358	115.000000	
87.092080	108.000000	
87.111801	113.000000	
87.131523	113.000000	
87.151244	106.000000	
87.170965	97.000000	
87.190687	122.000000	
87.210408	105.000000	
87.230129	103.000000	
87.249851	111.000000	
87.269572	105.000000	
87.289293	114.000000	
87.309015	106.000000	
87.328736	96.000000	
87.348458	114.000000	
87.368179	131.000000	
87.387900	93.000000	
87.407622	111.000000	
87.427343	94.000000	
87.447064	116.000000	
87.466786	103.000000	
87.486507	110.000000	
87.506228	93.000000	
87.525950	109.000000	
87.545671	125.000000	
87.565393	91.000000	
87.585114	105.000000	
87.604835	99.000000	
87.624557	102.000000	
87.644278	100.000000	
87.663999	99.000000	
87.683721	127.000000	
87.703442	119.000000	
87.723163	87.000000	
87.742885	116.000000	
87.762606	121.000000	
87.782328	115.000000	
87.802049	123.000000	
87.821770	106.000000	
87.841492	127.000000	
87.861213	95.000000	
87.880934	104.000000	
87.900656	108.000000	
87.920377	117.000000	
87.940098	105.000000	
87.959820	110.000000	
87.979541	115.000000	
87.999263	117.000000	
88.018984	111.000000	
88.038705	99.000000	
88.058427	110.000000	
88.078148	99.000000	
88.097869	108.000000	
88.117591	111.000000	
88.137312	114.000000	
88.157033	97.000000	
88.176755	101.000000	
88.196476	100.000000	
88.216198	111.000000	
88.235919	106.000000	
88.255640	106.000000	
88.275362	120.000000	
88.295083	118.000000	
88.314804	111.000000	
88.334526	98.000000	
88.354247	104.000000	
88.373968	97.000000	
88.393690	93.000000	
88.413411	102.000000	
88.433133	95.000000	
88.452854	80.000000	
88.472575	101.000000	
88.492297	104.000000	
88.512018	95.000000	
88.531739	114.000000	
88.551461	100.000000	
88.571182	102.000000	
88.590903	112.000000	
88.610625	106.000000	
88.630346	116.000000	
88.650068	116.000000	
88.669789	114.000000	
88.689510	96.000000	
88.709232	121.000000	
88.728953	93.000000	
88.748674	118.000000	
88.768396	124.000000	
88.788117	109.000000	
88.807838	120.000000	
88.827560	105.000000	
88.847281	107.000000	
88.867003	101.000000	
88.886724	114.000000	
88.906445	119.000000	
88.926167	94.000000	
88.945888	115.000000	
88.965609	100.000000	
88.985331	104.000000	
89.005052	111.000000	
89.024773	137.000000	
89.044495	89.000000	
89.064216	112.000000	
89.083938	110.000000	
89.103659	97.000000	
89.123380	101.000000	
89.143102	113.000000	
89.162823	111.000000	
89.182544	123.000000	
89.202266	132.000000	
89.221987	121.000000	
89.241708	112.000000	
89.261430	116.000000	
89.281151	111.000000	
89.300873	115.000000	
89.320594	114.000000	
89.340315	106.000000	
89.360037	109.000000	
89.379758	114.000000	
89.399479	133.000000	
89.419201	109.000000	
89.438922	116.000000	
89.458643	92.000000	
89.478365	131.000000	
89.498086	97.000000	
89.517808	118.000000	
89.537529	105.000000	
89.557250	127.000000	
89.576972	120.000000	
89.596693	111.000000	
89.616414	118.000000	
89.636136	135.000000	
89.655857	112.000000	
89.675578	125.000000	
89.695300	110.000000	
89.715021	109.000000	
89.734743	125.000000	
89.754464	106.000000	
89.774185	137.000000	
89.793907	116.000000	
89.813628	116.000000	
89.833349	128.000000	
89.853071	108.000000	
89.872792	124.000000	
89.892513	106.000000	
89.912235	138.000000	
89.931956	113.000000	
89.951678	111.000000	
89.971399	122.000000	
89.991120	101.000000	
