;content of D:\data\result\mecham\???\20231225-89741\600-07.raw - (Diffrac Plus V4 file)
_FILEVERSION = 3
_SAMPLE
_+SAMPLE
_USER = Lab Manager
_GONIOMETER_CODE = 21
_STAGE_CODE = 7
; Goniometer : D8 theta/theta, stage : Chi drive
_SAMPLE_CHANGER_CODE = 0
_ATTACHMENTS_CODE = 0
_GONIOMETER_RADIUS = 280
_MONOCHROMATOR = 0
; Incident beam monochromator : None
_BETA_FILTER = N
_ANALYZER_CODE = 0
; Received beam analyzer : None
_DATEMEASURED = 25-Dec-2023 10:43:43
_RUNTIME = 11.19043
_WL_UNIT = A
_WL1 = 1.5406
_WL2 = 1.54439
_WL3 = 1.39222
_WLRATIO = 0.5
_ANODE = Cu
_V4_INF_USER = Lab Manager
_V4_INF_CREATOR = V5Converter
_V4_INF_CREATOR_VERSION = 4.4.16.0

; Data for range 1
_DRIVE = COUPLED
_STEPTIME = 57.6
_STEPSIZE = 0.019721
_STEPMODE = C
_START = 20
_THETA = 10
_2THETA = 20
_KHI = 0
_PHI = 0
_DETECTORSLIT = out
_AUX1 = 0
_TIMESTARTED = 0
_KV = 40
_MA = 40
_RANGE_WL = 1.5406
_3DPLANE = 0
_V4_PSD2THETA = 9999
_V4_PSDCHANNEL1 = 0
_V4_PSDAPERTURE = 2.839876
_V4_PSDTYPE = 5
_V4_PSDFIXED = 0
_V4_COUNTERS_MASK = 1
_V4_DRIVES_MASK = 0
_V4_ENCODERS_MASK = 0
_2THETACOUNTS = 1
; 2THETA	Cnt2_D1	
20.000000	293.000000	
20.019721	281.000000	
20.039443	234.000000	
20.059164	283.000000	
20.078885	311.000000	
20.098607	286.000000	
20.118328	265.000000	
20.138050	271.000000	
20.157771	278.000000	
20.177492	256.000000	
20.197214	307.000000	
20.216935	251.000000	
20.236656	279.000000	
20.256378	269.000000	
20.276099	285.000000	
20.295820	271.000000	
20.315542	278.000000	
20.335263	279.000000	
20.354985	286.000000	
20.374706	316.000000	
20.394427	298.000000	
20.414149	312.000000	
20.433870	283.000000	
20.453591	296.000000	
20.473313	288.000000	
20.493034	299.000000	
20.512755	311.000000	
20.532477	278.000000	
20.552198	288.000000	
20.571920	283.000000	
20.591641	287.000000	
20.611362	288.000000	
20.631084	265.000000	
20.650805	284.000000	
20.670526	253.000000	
20.690248	262.000000	
20.709969	307.000000	
20.729690	265.000000	
20.749412	279.000000	
20.769133	287.000000	
20.788855	260.000000	
20.808576	309.000000	
20.828297	273.000000	
20.848019	273.000000	
20.867740	291.000000	
20.887461	268.000000	
20.907183	324.000000	
20.926904	292.000000	
20.946625	311.000000	
20.966347	285.000000	
20.986068	262.000000	
21.005790	279.000000	
21.025511	288.000000	
21.045232	301.000000	
21.064954	293.000000	
21.084675	291.000000	
21.104396	298.000000	
21.124118	297.000000	
21.143839	295.000000	
21.163560	311.000000	
21.183282	305.000000	
21.203003	266.000000	
21.222725	289.000000	
21.242446	299.000000	
21.262167	288.000000	
21.281889	310.000000	
21.301610	289.000000	
21.321331	293.000000	
21.341053	280.000000	
21.360774	311.000000	
21.380495	278.000000	
21.400217	302.000000	
21.419938	309.000000	
21.439660	284.000000	
21.459381	284.000000	
21.479102	286.000000	
21.498824	280.000000	
21.518545	306.000000	
21.538266	263.000000	
21.557988	254.000000	
21.577709	304.000000	
21.597430	316.000000	
21.617152	273.000000	
21.636873	274.000000	
21.656595	277.000000	
21.676316	277.000000	
21.696037	282.000000	
21.715759	292.000000	
21.735480	306.000000	
21.755201	285.000000	
21.774923	309.000000	
21.794644	280.000000	
21.814365	309.000000	
21.834087	276.000000	
21.853808	265.000000	
21.873530	274.000000	
21.893251	312.000000	
21.912972	308.000000	
21.932694	306.000000	
21.952415	248.000000	
21.972136	275.000000	
21.991858	299.000000	
22.011579	290.000000	
22.031300	290.000000	
22.051022	295.000000	
22.070743	268.000000	
22.090465	299.000000	
22.110186	256.000000	
22.129907	284.000000	
22.149629	310.000000	
22.169350	271.000000	
22.189071	298.000000	
22.208793	294.000000	
22.228514	285.000000	
22.248235	287.000000	
22.267957	314.000000	
22.287678	281.000000	
22.307400	274.000000	
22.327121	297.000000	
22.346842	307.000000	
22.366564	312.000000	
22.386285	289.000000	
22.406006	291.000000	
22.425728	309.000000	
22.445449	315.000000	
22.465170	308.000000	
22.484892	276.000000	
22.504613	290.000000	
22.524335	267.000000	
22.544056	293.000000	
22.563777	287.000000	
22.583499	317.000000	
22.603220	305.000000	
22.622941	310.000000	
22.642663	301.000000	
22.662384	285.000000	
22.682105	300.000000	
22.701827	285.000000	
22.721548	267.000000	
22.741270	290.000000	
22.760991	301.000000	
22.780712	299.000000	
22.800434	282.000000	
22.820155	264.000000	
22.839876	300.000000	
22.859598	280.000000	
22.879319	313.000000	
22.899040	288.000000	
22.918762	290.000000	
22.938483	283.000000	
22.958205	333.000000	
22.977926	318.000000	
22.997647	306.000000	
23.017369	264.000000	
23.037090	284.000000	
23.056811	296.000000	
23.076533	293.000000	
23.096254	314.000000	
23.115975	283.000000	
23.135697	330.000000	
23.155418	328.000000	
23.175140	302.000000	
23.194861	285.000000	
23.214582	318.000000	
23.234304	310.000000	
23.254025	309.000000	
23.273746	285.000000	
23.293468	278.000000	
23.313189	313.000000	
23.332910	293.000000	
23.352632	304.000000	
23.372353	299.000000	
23.392075	283.000000	
23.411796	279.000000	
23.431517	283.000000	
23.451239	289.000000	
23.470960	286.000000	
23.490681	298.000000	
23.510403	303.000000	
23.530124	286.000000	
23.549845	275.000000	
23.569567	317.000000	
23.589288	305.000000	
23.609010	313.000000	
23.628731	262.000000	
23.648452	327.000000	
23.668174	276.000000	
23.687895	275.000000	
23.707616	286.000000	
23.727338	321.000000	
23.747059	295.000000	
23.766780	298.000000	
23.786502	308.000000	
23.806223	313.000000	
23.825945	285.000000	
23.845666	290.000000	
23.865387	278.000000	
23.885109	298.000000	
23.904830	291.000000	
23.924551	289.000000	
23.944273	278.000000	
23.963994	291.000000	
23.983715	325.000000	
24.003437	288.000000	
24.023158	290.000000	
24.042880	292.000000	
24.062601	311.000000	
24.082322	312.000000	
24.102044	344.000000	
24.121765	287.000000	
24.141486	281.000000	
24.161208	305.000000	
24.180929	321.000000	
24.200650	301.000000	
24.220372	310.000000	
24.240093	312.000000	
24.259815	336.000000	
24.279536	315.000000	
24.299257	296.000000	
24.318979	309.000000	
24.338700	300.000000	
24.358421	299.000000	
24.378143	348.000000	
24.397864	311.000000	
24.417586	318.000000	
24.437307	324.000000	
24.457028	347.000000	
24.476750	296.000000	
24.496471	396.000000	
24.516192	370.000000	
24.535914	322.000000	
24.555635	334.000000	
24.575356	344.000000	
24.595078	359.000000	
24.614799	359.000000	
24.634521	349.000000	
24.654242	321.000000	
24.673963	304.000000	
24.693685	339.000000	
24.713406	292.000000	
24.733127	329.000000	
24.752849	308.000000	
24.772570	282.000000	
24.792291	302.000000	
24.812013	276.000000	
24.831734	327.000000	
24.851456	277.000000	
24.871177	300.000000	
24.890898	301.000000	
24.910620	306.000000	
24.930341	291.000000	
24.950062	320.000000	
24.969784	279.000000	
24.989505	332.000000	
25.009226	301.000000	
25.028948	307.000000	
25.048669	293.000000	
25.068391	282.000000	
25.088112	328.000000	
25.107833	307.000000	
25.127555	317.000000	
25.147276	319.000000	
25.166997	273.000000	
25.186719	322.000000	
25.206440	313.000000	
25.226161	313.000000	
25.245883	300.000000	
25.265604	304.000000	
25.285326	286.000000	
25.305047	290.000000	
25.324768	314.000000	
25.344490	309.000000	
25.364211	311.000000	
25.383932	272.000000	
25.403654	322.000000	
25.423375	338.000000	
25.443096	305.000000	
25.462818	292.000000	
25.482539	323.000000	
25.502261	286.000000	
25.521982	303.000000	
25.541703	300.000000	
25.561425	329.000000	
25.581146	311.000000	
25.600867	292.000000	
25.620589	318.000000	
25.640310	303.000000	
25.660031	288.000000	
25.679753	289.000000	
25.699474	305.000000	
25.719196	290.000000	
25.738917	346.000000	
25.758638	310.000000	
25.778360	311.000000	
25.798081	303.000000	
25.817802	297.000000	
25.837524	313.000000	
25.857245	289.000000	
25.876966	264.000000	
25.896688	294.000000	
25.916409	321.000000	
25.936131	282.000000	
25.955852	306.000000	
25.975573	346.000000	
25.995295	286.000000	
26.015016	321.000000	
26.034737	296.000000	
26.054459	324.000000	
26.074180	282.000000	
26.093901	322.000000	
26.113623	301.000000	
26.133344	283.000000	
26.153066	307.000000	
26.172787	316.000000	
26.192508	307.000000	
26.212230	317.000000	
26.231951	319.000000	
26.251672	296.000000	
26.271394	332.000000	
26.291115	319.000000	
26.310836	285.000000	
26.330558	278.000000	
26.350279	293.000000	
26.370001	285.000000	
26.389722	287.000000	
26.409443	310.000000	
26.429165	327.000000	
26.448886	313.000000	
26.468607	274.000000	
26.488329	290.000000	
26.508050	314.000000	
26.527771	329.000000	
26.547493	322.000000	
26.567214	298.000000	
26.586936	293.000000	
26.606657	297.000000	
26.626378	289.000000	
26.646100	327.000000	
26.665821	286.000000	
26.685542	319.000000	
26.705264	301.000000	
26.724985	293.000000	
26.744706	297.000000	
26.764428	308.000000	
26.784149	306.000000	
26.803871	287.000000	
26.823592	282.000000	
26.843313	331.000000	
26.863035	282.000000	
26.882756	316.000000	
26.902477	304.000000	
26.922199	307.000000	
26.941920	324.000000	
26.961641	287.000000	
26.981363	309.000000	
27.001084	306.000000	
27.020806	305.000000	
27.040527	318.000000	
27.060248	292.000000	
27.079970	323.000000	
27.099691	327.000000	
27.119412	290.000000	
27.139134	329.000000	
27.158855	264.000000	
27.178576	330.000000	
27.198298	311.000000	
27.218019	274.000000	
27.237741	317.000000	
27.257462	319.000000	
27.277183	283.000000	
27.296905	336.000000	
27.316626	285.000000	
27.336347	327.000000	
27.356069	326.000000	
27.375790	266.000000	
27.395511	303.000000	
27.415233	302.000000	
27.434954	312.000000	
27.454676	276.000000	
27.474397	311.000000	
27.494118	291.000000	
27.513840	305.000000	
27.533561	320.000000	
27.553282	313.000000	
27.573004	284.000000	
27.592725	346.000000	
27.612446	319.000000	
27.632168	310.000000	
27.651889	316.000000	
27.671611	312.000000	
27.691332	265.000000	
27.711053	313.000000	
27.730775	321.000000	
27.750496	285.000000	
27.770217	306.000000	
27.789939	323.000000	
27.809660	312.000000	
27.829381	287.000000	
27.849103	303.000000	
27.868824	285.000000	
27.888546	337.000000	
27.908267	282.000000	
27.927988	297.000000	
27.947710	289.000000	
27.967431	273.000000	
27.987152	312.000000	
28.006874	323.000000	
28.026595	312.000000	
28.046316	337.000000	
28.066038	320.000000	
28.085759	324.000000	
28.105481	311.000000	
28.125202	294.000000	
28.144923	318.000000	
28.164645	311.000000	
28.184366	302.000000	
28.204087	327.000000	
28.223809	321.000000	
28.243530	301.000000	
28.263251	292.000000	
28.282973	299.000000	
28.302694	269.000000	
28.322416	308.000000	
28.342137	296.000000	
28.361858	297.000000	
28.381580	318.000000	
28.401301	292.000000	
28.421022	285.000000	
28.440744	290.000000	
28.460465	293.000000	
28.480186	314.000000	
28.499908	300.000000	
28.519629	312.000000	
28.539351	305.000000	
28.559072	319.000000	
28.578793	330.000000	
28.598515	295.000000	
28.618236	314.000000	
28.637957	290.000000	
28.657679	312.000000	
28.677400	308.000000	
28.697121	307.000000	
28.716843	310.000000	
28.736564	287.000000	
28.756286	319.000000	
28.776007	291.000000	
28.795728	295.000000	
28.815450	278.000000	
28.835171	318.000000	
28.854892	271.000000	
28.874614	321.000000	
28.894335	341.000000	
28.914056	326.000000	
28.933778	286.000000	
28.953499	305.000000	
28.973221	301.000000	
28.992942	292.000000	
29.012663	327.000000	
29.032385	331.000000	
29.052106	301.000000	
29.071827	313.000000	
29.091549	308.000000	
29.111270	338.000000	
29.130991	309.000000	
29.150713	317.000000	
29.170434	290.000000	
29.190156	301.000000	
29.209877	293.000000	
29.229598	301.000000	
29.249320	301.000000	
29.269041	336.000000	
29.288762	331.000000	
29.308484	270.000000	
29.328205	334.000000	
29.347926	336.000000	
29.367648	341.000000	
29.387369	304.000000	
29.407091	325.000000	
29.426812	309.000000	
29.446533	302.000000	
29.466255	320.000000	
29.485976	295.000000	
29.505697	317.000000	
29.525419	326.000000	
29.545140	335.000000	
29.564861	294.000000	
29.584583	298.000000	
29.604304	314.000000	
29.624026	327.000000	
29.643747	304.000000	
29.663468	318.000000	
29.683190	340.000000	
29.702911	290.000000	
29.722632	330.000000	
29.742354	330.000000	
29.762075	325.000000	
29.781796	309.000000	
29.801518	272.000000	
29.821239	332.000000	
29.840961	294.000000	
29.860682	317.000000	
29.880403	339.000000	
29.900125	326.000000	
29.919846	334.000000	
29.939567	308.000000	
29.959289	340.000000	
29.979010	309.000000	
29.998731	331.000000	
30.018453	381.000000	
30.038174	360.000000	
30.057896	344.000000	
30.077617	366.000000	
30.097338	413.000000	
30.117060	444.000000	
30.136781	480.000000	
30.156502	489.000000	
30.176224	483.000000	
30.195945	588.000000	
30.215666	607.000000	
30.235388	689.000000	
30.255109	718.000000	
30.274831	874.000000	
30.294552	851.000000	
30.314273	788.000000	
30.333995	706.000000	
30.353716	677.000000	
30.373437	632.000000	
30.393159	583.000000	
30.412880	444.000000	
30.432601	442.000000	
30.452323	370.000000	
30.472044	350.000000	
30.491766	350.000000	
30.511487	327.000000	
30.531208	314.000000	
30.550930	344.000000	
30.570651	369.000000	
30.590372	298.000000	
30.610094	316.000000	
30.629815	314.000000	
30.649536	366.000000	
30.669258	315.000000	
30.688979	311.000000	
30.708701	300.000000	
30.728422	309.000000	
30.748143	330.000000	
30.767865	297.000000	
30.787586	308.000000	
30.807307	317.000000	
30.827029	311.000000	
30.846750	325.000000	
30.866471	314.000000	
30.886193	282.000000	
30.905914	315.000000	
30.925636	343.000000	
30.945357	327.000000	
30.965078	316.000000	
30.984800	323.000000	
31.004521	321.000000	
31.024242	314.000000	
31.043964	311.000000	
31.063685	312.000000	
31.083406	294.000000	
31.103128	311.000000	
31.122849	301.000000	
31.142571	324.000000	
31.162292	280.000000	
31.182013	317.000000	
31.201735	306.000000	
31.221456	312.000000	
31.241177	311.000000	
31.260899	322.000000	
31.280620	302.000000	
31.300341	296.000000	
31.320063	305.000000	
31.339784	304.000000	
31.359506	326.000000	
31.379227	303.000000	
31.398948	311.000000	
31.418670	314.000000	
31.438391	325.000000	
31.458112	299.000000	
31.477834	323.000000	
31.497555	324.000000	
31.517276	300.000000	
31.536998	307.000000	
31.556719	327.000000	
31.576441	287.000000	
31.596162	297.000000	
31.615883	309.000000	
31.635605	286.000000	
31.655326	327.000000	
31.675047	309.000000	
31.694769	281.000000	
31.714490	291.000000	
31.734211	309.000000	
31.753933	296.000000	
31.773654	294.000000	
31.793376	312.000000	
31.813097	347.000000	
31.832818	308.000000	
31.852540	327.000000	
31.872261	311.000000	
31.891982	302.000000	
31.911704	307.000000	
31.931425	328.000000	
31.951146	305.000000	
31.970868	325.000000	
31.990589	323.000000	
32.010311	341.000000	
32.030032	296.000000	
32.049753	312.000000	
32.069475	311.000000	
32.089196	327.000000	
32.108917	323.000000	
32.128639	302.000000	
32.148360	328.000000	
32.168081	301.000000	
32.187803	284.000000	
32.207524	318.000000	
32.227246	329.000000	
32.246967	299.000000	
32.266688	288.000000	
32.286410	327.000000	
32.306131	317.000000	
32.325852	314.000000	
32.345574	314.000000	
32.365295	336.000000	
32.385016	302.000000	
32.404738	280.000000	
32.424459	288.000000	
32.444181	319.000000	
32.463902	307.000000	
32.483623	290.000000	
32.503345	328.000000	
32.523066	299.000000	
32.542787	309.000000	
32.562509	304.000000	
32.582230	327.000000	
32.601951	297.000000	
32.621673	319.000000	
32.641394	302.000000	
32.661116	321.000000	
32.680837	298.000000	
32.700558	332.000000	
32.720280	339.000000	
32.740001	332.000000	
32.759722	320.000000	
32.779444	305.000000	
32.799165	311.000000	
32.818886	332.000000	
32.838608	321.000000	
32.858329	322.000000	
32.878051	351.000000	
32.897772	316.000000	
32.917493	315.000000	
32.937215	326.000000	
32.956936	327.000000	
32.976657	310.000000	
32.996379	315.000000	
33.016100	302.000000	
33.035821	332.000000	
33.055543	306.000000	
33.075264	297.000000	
33.094986	282.000000	
33.114707	324.000000	
33.134428	309.000000	
33.154150	323.000000	
33.173871	352.000000	
33.193592	333.000000	
33.213314	294.000000	
33.233035	344.000000	
33.252757	322.000000	
33.272478	290.000000	
33.292199	348.000000	
33.311921	320.000000	
33.331642	317.000000	
33.351363	375.000000	
33.371085	332.000000	
33.390806	351.000000	
33.410527	300.000000	
33.430249	349.000000	
33.449970	331.000000	
33.469692	318.000000	
33.489413	341.000000	
33.509134	399.000000	
33.528856	393.000000	
33.548577	438.000000	
33.568298	390.000000	
33.588020	402.000000	
33.607741	407.000000	
33.627462	435.000000	
33.647184	420.000000	
33.666905	405.000000	
33.686627	441.000000	
33.706348	371.000000	
33.726069	399.000000	
33.745791	393.000000	
33.765512	411.000000	
33.785233	430.000000	
33.804955	358.000000	
33.824676	365.000000	
33.844397	371.000000	
33.864119	355.000000	
33.883840	349.000000	
33.903562	333.000000	
33.923283	369.000000	
33.943004	341.000000	
33.962726	319.000000	
33.982447	343.000000	
34.002168	324.000000	
34.021890	320.000000	
34.041611	314.000000	
34.061332	339.000000	
34.081054	328.000000	
34.100775	315.000000	
34.120497	324.000000	
34.140218	343.000000	
34.159939	312.000000	
34.179661	345.000000	
34.199382	327.000000	
34.219103	348.000000	
34.238825	365.000000	
34.258546	350.000000	
34.278267	328.000000	
34.297989	318.000000	
34.317710	305.000000	
34.337432	314.000000	
34.357153	316.000000	
34.376874	329.000000	
34.396596	338.000000	
34.416317	307.000000	
34.436038	317.000000	
34.455760	307.000000	
34.475481	345.000000	
34.495202	339.000000	
34.514924	347.000000	
34.534645	343.000000	
34.554367	310.000000	
34.574088	345.000000	
34.593809	341.000000	
34.613531	332.000000	
34.633252	312.000000	
34.652973	352.000000	
34.672695	342.000000	
34.692416	350.000000	
34.712137	342.000000	
34.731859	315.000000	
34.751580	357.000000	
34.771302	297.000000	
34.791023	346.000000	
34.810744	318.000000	
34.830466	331.000000	
34.850187	331.000000	
34.869908	323.000000	
34.889630	329.000000	
34.909351	338.000000	
34.929072	304.000000	
34.948794	361.000000	
34.968515	340.000000	
34.988237	342.000000	
35.007958	336.000000	
35.027679	343.000000	
35.047401	322.000000	
35.067122	336.000000	
35.086843	325.000000	
35.106565	338.000000	
35.126286	310.000000	
35.146007	355.000000	
35.165729	330.000000	
35.185450	318.000000	
35.205172	330.000000	
35.224893	338.000000	
35.244614	343.000000	
35.264336	362.000000	
35.284057	354.000000	
35.303778	372.000000	
35.323500	377.000000	
35.343221	368.000000	
35.362942	413.000000	
35.382664	444.000000	
35.402385	465.000000	
35.422107	480.000000	
35.441828	560.000000	
35.461549	656.000000	
35.481271	683.000000	
35.500992	770.000000	
35.520713	804.000000	
35.540435	961.000000	
35.560156	1034.000000	
35.579877	1197.000000	
35.599599	1384.000000	
35.619320	1524.000000	
35.639042	1605.000000	
35.658763	1591.000000	
35.678484	1476.000000	
35.698206	1346.000000	
35.717927	1205.000000	
35.737648	1060.000000	
35.757370	983.000000	
35.777091	844.000000	
35.796812	696.000000	
35.816534	553.000000	
35.836255	539.000000	
35.855977	447.000000	
35.875698	448.000000	
35.895419	404.000000	
35.915141	379.000000	
35.934862	389.000000	
35.954583	412.000000	
35.974305	358.000000	
35.994026	365.000000	
36.013747	377.000000	
36.033469	426.000000	
36.053190	384.000000	
36.072912	395.000000	
36.092633	370.000000	
36.112354	395.000000	
36.132076	423.000000	
36.151797	423.000000	
36.171518	433.000000	
36.191240	416.000000	
36.210961	470.000000	
36.230682	414.000000	
36.250404	395.000000	
36.270125	449.000000	
36.289847	421.000000	
36.309568	408.000000	
36.329289	425.000000	
36.349011	435.000000	
36.368732	435.000000	
36.388453	404.000000	
36.408175	415.000000	
36.427896	390.000000	
36.447617	380.000000	
36.467339	347.000000	
36.487060	379.000000	
36.506782	344.000000	
36.526503	357.000000	
36.546224	339.000000	
36.565946	318.000000	
36.585667	324.000000	
36.605388	376.000000	
36.625110	367.000000	
36.644831	368.000000	
36.664552	354.000000	
36.684274	369.000000	
36.703995	325.000000	
36.723717	356.000000	
36.743438	331.000000	
36.763159	332.000000	
36.782881	327.000000	
36.802602	345.000000	
36.822323	375.000000	
36.842045	351.000000	
36.861766	332.000000	
36.881487	368.000000	
36.901209	368.000000	
36.920930	364.000000	
36.940652	369.000000	
36.960373	390.000000	
36.980094	371.000000	
36.999816	391.000000	
37.019537	422.000000	
37.039258	517.000000	
37.058980	491.000000	
37.078701	524.000000	
37.098422	585.000000	
37.118144	714.000000	
37.137865	901.000000	
37.157587	1095.000000	
37.177308	1317.000000	
37.197029	1597.000000	
37.216751	1987.000000	
37.236472	2440.000000	
37.256193	2948.000000	
37.275915	3265.000000	
37.295636	3446.000000	
37.315357	3341.000000	
37.335079	3003.000000	
37.354800	2599.000000	
37.374522	2337.000000	
37.394243	2112.000000	
37.413964	1778.000000	
37.433686	1407.000000	
37.453407	1064.000000	
37.473128	846.000000	
37.492850	722.000000	
37.512571	618.000000	
37.532292	555.000000	
37.552014	423.000000	
37.571735	449.000000	
37.591457	403.000000	
37.611178	409.000000	
37.630899	391.000000	
37.650621	351.000000	
37.670342	374.000000	
37.690063	369.000000	
37.709785	359.000000	
37.729506	326.000000	
37.749227	375.000000	
37.768949	338.000000	
37.788670	346.000000	
37.808392	333.000000	
37.828113	371.000000	
37.847834	340.000000	
37.867556	327.000000	
37.887277	342.000000	
37.906998	338.000000	
37.926720	340.000000	
37.946441	319.000000	
37.966162	367.000000	
37.985884	306.000000	
38.005605	342.000000	
38.025327	324.000000	
38.045048	369.000000	
38.064769	315.000000	
38.084491	346.000000	
38.104212	300.000000	
38.123933	331.000000	
38.143655	346.000000	
38.163376	298.000000	
38.183097	330.000000	
38.202819	337.000000	
38.222540	338.000000	
38.242262	324.000000	
38.261983	334.000000	
38.281704	294.000000	
38.301426	357.000000	
38.321147	331.000000	
38.340868	321.000000	
38.360590	325.000000	
38.380311	312.000000	
38.400032	355.000000	
38.419754	345.000000	
38.439475	334.000000	
38.459197	376.000000	
38.478918	329.000000	
38.498639	338.000000	
38.518361	332.000000	
38.538082	331.000000	
38.557803	300.000000	
38.577525	315.000000	
38.597246	343.000000	
38.616967	351.000000	
38.636689	354.000000	
38.656410	314.000000	
38.676132	346.000000	
38.695853	306.000000	
38.715574	322.000000	
38.735296	329.000000	
38.755017	340.000000	
38.774738	342.000000	
38.794460	341.000000	
38.814181	326.000000	
38.833902	339.000000	
38.853624	343.000000	
38.873345	342.000000	
38.893067	336.000000	
38.912788	331.000000	
38.932509	334.000000	
38.952231	332.000000	
38.971952	339.000000	
38.991673	306.000000	
39.011395	332.000000	
39.031116	311.000000	
39.050837	301.000000	
39.070559	363.000000	
39.090280	335.000000	
39.110002	300.000000	
39.129723	338.000000	
39.149444	333.000000	
39.169166	333.000000	
39.188887	307.000000	
39.208608	330.000000	
39.228330	338.000000	
39.248051	348.000000	
39.267772	352.000000	
39.287494	327.000000	
39.307215	358.000000	
39.326937	329.000000	
39.346658	344.000000	
39.366379	310.000000	
39.386101	325.000000	
39.405822	320.000000	
39.425543	289.000000	
39.445265	339.000000	
39.464986	340.000000	
39.484707	331.000000	
39.504429	353.000000	
39.524150	315.000000	
39.543872	309.000000	
39.563593	300.000000	
39.583314	343.000000	
39.603036	312.000000	
39.622757	341.000000	
39.642478	332.000000	
39.662200	328.000000	
39.681921	320.000000	
39.701642	337.000000	
39.721364	345.000000	
39.741085	325.000000	
39.760807	342.000000	
39.780528	332.000000	
39.800249	339.000000	
39.819971	320.000000	
39.839692	333.000000	
39.859413	344.000000	
39.879135	351.000000	
39.898856	320.000000	
39.918577	320.000000	
39.938299	341.000000	
39.958020	320.000000	
39.977742	342.000000	
39.997463	318.000000	
40.017184	309.000000	
40.036906	315.000000	
40.056627	294.000000	
40.076348	353.000000	
40.096070	330.000000	
40.115791	354.000000	
40.135512	281.000000	
40.155234	346.000000	
40.174955	313.000000	
40.194677	307.000000	
40.214398	296.000000	
40.234119	294.000000	
40.253841	325.000000	
40.273562	308.000000	
40.293283	326.000000	
40.313005	339.000000	
40.332726	321.000000	
40.352447	335.000000	
40.372169	301.000000	
40.391890	324.000000	
40.411612	326.000000	
40.431333	295.000000	
40.451054	310.000000	
40.470776	337.000000	
40.490497	304.000000	
40.510218	353.000000	
40.529940	300.000000	
40.549661	345.000000	
40.569382	373.000000	
40.589104	339.000000	
40.608825	317.000000	
40.628547	321.000000	
40.648268	336.000000	
40.667989	274.000000	
40.687711	314.000000	
40.707432	316.000000	
40.727153	310.000000	
40.746875	341.000000	
40.766596	292.000000	
40.786317	320.000000	
40.806039	330.000000	
40.825760	304.000000	
40.845482	324.000000	
40.865203	323.000000	
40.884924	314.000000	
40.904646	334.000000	
40.924367	315.000000	
40.944088	288.000000	
40.963810	356.000000	
40.983531	341.000000	
41.003252	305.000000	
41.022974	311.000000	
41.042695	357.000000	
41.062417	266.000000	
41.082138	305.000000	
41.101859	346.000000	
41.121581	311.000000	
41.141302	337.000000	
41.161023	359.000000	
41.180745	289.000000	
41.200466	308.000000	
41.220187	323.000000	
41.239909	326.000000	
41.259630	348.000000	
41.279352	303.000000	
41.299073	337.000000	
41.318794	332.000000	
41.338516	335.000000	
41.358237	315.000000	
41.377958	352.000000	
41.397680	336.000000	
41.417401	370.000000	
41.437122	343.000000	
41.456844	360.000000	
41.476565	369.000000	
41.496287	339.000000	
41.516008	401.000000	
41.535729	369.000000	
41.555451	372.000000	
41.575172	332.000000	
41.594893	323.000000	
41.614615	384.000000	
41.634336	320.000000	
41.654057	335.000000	
41.673779	371.000000	
41.693500	347.000000	
41.713222	363.000000	
41.732943	337.000000	
41.752664	340.000000	
41.772386	303.000000	
41.792107	348.000000	
41.811828	348.000000	
41.831550	352.000000	
41.851271	320.000000	
41.870992	323.000000	
41.890714	331.000000	
41.910435	333.000000	
41.930157	338.000000	
41.949878	287.000000	
41.969599	337.000000	
41.989321	350.000000	
42.009042	341.000000	
42.028763	312.000000	
42.048485	339.000000	
42.068206	309.000000	
42.087928	329.000000	
42.107649	326.000000	
42.127370	320.000000	
42.147092	319.000000	
42.166813	331.000000	
42.186534	342.000000	
42.206256	328.000000	
42.225977	304.000000	
42.245698	325.000000	
42.265420	334.000000	
42.285141	362.000000	
42.304863	304.000000	
42.324584	313.000000	
42.344305	302.000000	
42.364027	351.000000	
42.383748	341.000000	
42.403469	320.000000	
42.423191	358.000000	
42.442912	370.000000	
42.462633	307.000000	
42.482355	363.000000	
42.502076	291.000000	
42.521798	350.000000	
42.541519	341.000000	
42.561240	365.000000	
42.580962	319.000000	
42.600683	338.000000	
42.620404	338.000000	
42.640126	348.000000	
42.659847	366.000000	
42.679568	358.000000	
42.699290	330.000000	
42.719011	353.000000	
42.738733	360.000000	
42.758454	326.000000	
42.778175	322.000000	
42.797897	331.000000	
42.817618	344.000000	
42.837339	321.000000	
42.857061	372.000000	
42.876782	351.000000	
42.896503	341.000000	
42.916225	350.000000	
42.935946	325.000000	
42.955668	378.000000	
42.975389	355.000000	
42.995110	365.000000	
43.014832	352.000000	
43.034553	361.000000	
43.054274	417.000000	
43.073996	408.000000	
43.093717	422.000000	
43.113438	439.000000	
43.133160	438.000000	
43.152881	484.000000	
43.172603	535.000000	
43.192324	536.000000	
43.212045	559.000000	
43.231767	662.000000	
43.251488	694.000000	
43.271209	844.000000	
43.290931	903.000000	
43.310652	976.000000	
43.330373	1008.000000	
43.350095	950.000000	
43.369816	872.000000	
43.389538	822.000000	
43.409259	809.000000	
43.428980	725.000000	
43.448702	650.000000	
43.468423	646.000000	
43.488144	557.000000	
43.507866	476.000000	
43.527587	444.000000	
43.547308	445.000000	
43.567030	355.000000	
43.586751	362.000000	
43.606473	391.000000	
43.626194	375.000000	
43.645915	364.000000	
43.665637	377.000000	
43.685358	325.000000	
43.705079	372.000000	
43.724801	356.000000	
43.744522	374.000000	
43.764243	391.000000	
43.783965	389.000000	
43.803686	385.000000	
43.823408	355.000000	
43.843129	376.000000	
43.862850	364.000000	
43.882572	413.000000	
43.902293	404.000000	
43.922014	399.000000	
43.941736	432.000000	
43.961457	421.000000	
43.981178	471.000000	
44.000900	517.000000	
44.020621	602.000000	
44.040343	751.000000	
44.060064	996.000000	
44.079785	1305.000000	
44.099507	1597.000000	
44.119228	2332.000000	
44.138949	3886.000000	
44.158671	5601.000000	
44.178392	5413.000000	
44.198113	4035.000000	
44.217835	3516.000000	
44.237556	3570.000000	
44.257278	3997.000000	
44.276999	4273.000000	
44.296720	3915.000000	
44.316442	3013.000000	
44.336163	2502.000000	
44.355884	2144.000000	
44.375606	1917.000000	
44.395327	1599.000000	
44.415048	1594.000000	
44.434770	1378.000000	
44.454491	1282.000000	
44.474213	1234.000000	
44.493934	1145.000000	
44.513655	1171.000000	
44.533377	1193.000000	
44.553098	1087.000000	
44.572819	1040.000000	
44.592541	872.000000	
44.612262	770.000000	
44.631983	714.000000	
44.651705	718.000000	
44.671426	626.000000	
44.691148	647.000000	
44.710869	530.000000	
44.730590	466.000000	
44.750312	468.000000	
44.770033	453.000000	
44.789754	419.000000	
44.809476	370.000000	
44.829197	369.000000	
44.848918	357.000000	
44.868640	361.000000	
44.888361	357.000000	
44.908083	356.000000	
44.927804	351.000000	
44.947525	368.000000	
44.967247	371.000000	
44.986968	357.000000	
45.006689	345.000000	
45.026411	346.000000	
45.046132	374.000000	
45.065853	352.000000	
45.085575	359.000000	
45.105296	367.000000	
45.125018	389.000000	
45.144739	326.000000	
45.164460	323.000000	
45.184182	335.000000	
45.203903	347.000000	
45.223624	311.000000	
45.243346	334.000000	
45.263067	331.000000	
45.282788	355.000000	
45.302510	348.000000	
45.322231	295.000000	
45.341953	369.000000	
45.361674	308.000000	
45.381395	321.000000	
45.401117	379.000000	
45.420838	317.000000	
45.440559	360.000000	
45.460281	312.000000	
45.480002	317.000000	
45.499723	365.000000	
45.519445	339.000000	
45.539166	353.000000	
45.558888	339.000000	
45.578609	364.000000	
45.598330	366.000000	
45.618052	333.000000	
45.637773	343.000000	
45.657494	314.000000	
45.677216	291.000000	
45.696937	328.000000	
45.716658	352.000000	
45.736380	355.000000	
45.756101	326.000000	
45.775823	332.000000	
45.795544	326.000000	
45.815265	311.000000	
45.834987	342.000000	
45.854708	317.000000	
45.874429	340.000000	
45.894151	300.000000	
45.913872	318.000000	
45.933593	316.000000	
45.953315	328.000000	
45.973036	361.000000	
45.992758	336.000000	
46.012479	351.000000	
46.032200	317.000000	
46.051922	338.000000	
46.071643	338.000000	
46.091364	325.000000	
46.111086	320.000000	
46.130807	324.000000	
46.150528	321.000000	
46.170250	344.000000	
46.189971	325.000000	
46.209693	316.000000	
46.229414	326.000000	
46.249135	342.000000	
46.268857	334.000000	
46.288578	344.000000	
46.308299	324.000000	
46.328021	339.000000	
46.347742	330.000000	
46.367463	308.000000	
46.387185	323.000000	
46.406906	340.000000	
46.426628	329.000000	
46.446349	330.000000	
46.466070	303.000000	
46.485792	320.000000	
46.505513	301.000000	
46.525234	349.000000	
46.544956	310.000000	
46.564677	328.000000	
46.584398	318.000000	
46.604120	379.000000	
46.623841	348.000000	
46.643563	326.000000	
46.663284	327.000000	
46.683005	311.000000	
46.702727	313.000000	
46.722448	341.000000	
46.742169	348.000000	
46.761891	318.000000	
46.781612	316.000000	
46.801333	316.000000	
46.821055	342.000000	
46.840776	304.000000	
46.860498	324.000000	
46.880219	328.000000	
46.899940	322.000000	
46.919662	322.000000	
46.939383	324.000000	
46.959104	324.000000	
46.978826	327.000000	
46.998547	299.000000	
47.018268	322.000000	
47.037990	340.000000	
47.057711	318.000000	
47.077433	318.000000	
47.097154	331.000000	
47.116875	330.000000	
47.136597	327.000000	
47.156318	333.000000	
47.176039	330.000000	
47.195761	341.000000	
47.215482	329.000000	
47.235203	326.000000	
47.254925	346.000000	
47.274646	304.000000	
47.294368	297.000000	
47.314089	320.000000	
47.333810	346.000000	
47.353532	330.000000	
47.373253	325.000000	
47.392974	334.000000	
47.412696	334.000000	
47.432417	361.000000	
47.452138	336.000000	
47.471860	314.000000	
47.491581	317.000000	
47.511303	323.000000	
47.531024	341.000000	
47.550745	338.000000	
47.570467	312.000000	
47.590188	318.000000	
47.609909	304.000000	
47.629631	298.000000	
47.649352	275.000000	
47.669073	348.000000	
47.688795	332.000000	
47.708516	339.000000	
47.728238	340.000000	
47.747959	330.000000	
47.767680	353.000000	
47.787402	311.000000	
47.807123	339.000000	
47.826844	308.000000	
47.846566	320.000000	
47.866287	325.000000	
47.886008	304.000000	
47.905730	318.000000	
47.925451	319.000000	
47.945173	363.000000	
47.964894	305.000000	
47.984615	328.000000	
48.004337	313.000000	
48.024058	337.000000	
48.043779	312.000000	
48.063501	312.000000	
48.083222	297.000000	
48.102943	343.000000	
48.122665	323.000000	
48.142386	336.000000	
48.162108	317.000000	
48.181829	330.000000	
48.201550	325.000000	
48.221272	325.000000	
48.240993	325.000000	
48.260714	308.000000	
48.280436	304.000000	
48.300157	324.000000	
48.319878	369.000000	
48.339600	295.000000	
48.359321	346.000000	
48.379043	314.000000	
48.398764	338.000000	
48.418485	329.000000	
48.438207	314.000000	
48.457928	341.000000	
48.477649	310.000000	
48.497371	319.000000	
48.517092	339.000000	
48.536813	321.000000	
48.556535	315.000000	
48.576256	352.000000	
48.595978	318.000000	
48.615699	330.000000	
48.635420	294.000000	
48.655142	319.000000	
48.674863	322.000000	
48.694584	310.000000	
48.714306	297.000000	
48.734027	327.000000	
48.753748	323.000000	
48.773470	302.000000	
48.793191	318.000000	
48.812913	288.000000	
48.832634	324.000000	
48.852355	313.000000	
48.872077	316.000000	
48.891798	315.000000	
48.911519	325.000000	
48.931241	299.000000	
48.950962	290.000000	
48.970683	293.000000	
48.990405	308.000000	
49.010126	289.000000	
49.029848	334.000000	
49.049569	294.000000	
49.069290	348.000000	
49.089012	338.000000	
49.108733	303.000000	
49.128454	335.000000	
49.148176	325.000000	
49.167897	311.000000	
49.187618	338.000000	
49.207340	332.000000	
49.227061	296.000000	
49.246783	331.000000	
49.266504	353.000000	
49.286225	282.000000	
49.305947	345.000000	
49.325668	348.000000	
49.345389	296.000000	
49.365111	327.000000	
49.384832	322.000000	
49.404553	310.000000	
49.424275	325.000000	
49.443996	315.000000	
49.463718	332.000000	
49.483439	351.000000	
49.503160	282.000000	
49.522882	312.000000	
49.542603	303.000000	
49.562324	297.000000	
49.582046	328.000000	
49.601767	324.000000	
49.621488	321.000000	
49.641210	298.000000	
49.660931	340.000000	
49.680653	333.000000	
49.700374	328.000000	
49.720095	334.000000	
49.739817	320.000000	
49.759538	319.000000	
49.779259	322.000000	
49.798981	341.000000	
49.818702	340.000000	
49.838423	341.000000	
49.858145	339.000000	
49.877866	348.000000	
49.897588	305.000000	
49.917309	315.000000	
49.937030	320.000000	
49.956752	319.000000	
49.976473	325.000000	
49.996194	346.000000	
50.015916	282.000000	
50.035637	331.000000	
50.055358	328.000000	
50.075080	316.000000	
50.094801	337.000000	
50.114523	330.000000	
50.134244	353.000000	
50.153965	351.000000	
50.173687	356.000000	
50.193408	321.000000	
50.213129	373.000000	
50.232851	315.000000	
50.252572	335.000000	
50.272293	325.000000	
50.292015	340.000000	
50.311736	350.000000	
50.331458	340.000000	
50.351179	332.000000	
50.370900	374.000000	
50.390622	353.000000	
50.410343	319.000000	
50.430064	317.000000	
50.449786	339.000000	
50.469507	334.000000	
50.489228	332.000000	
50.508950	323.000000	
50.528671	368.000000	
50.548393	309.000000	
50.568114	356.000000	
50.587835	346.000000	
50.607557	320.000000	
50.627278	366.000000	
50.646999	333.000000	
50.666721	309.000000	
50.686442	321.000000	
50.706163	306.000000	
50.725885	338.000000	
50.745606	329.000000	
50.765328	336.000000	
50.785049	308.000000	
50.804770	332.000000	
50.824492	336.000000	
50.844213	302.000000	
50.863934	317.000000	
50.883656	325.000000	
50.903377	330.000000	
50.923099	309.000000	
50.942820	303.000000	
50.962541	357.000000	
50.982263	336.000000	
51.001984	323.000000	
51.021705	348.000000	
51.041427	324.000000	
51.061148	334.000000	
51.080869	326.000000	
51.100591	334.000000	
51.120312	317.000000	
51.140034	263.000000	
51.159755	347.000000	
51.179476	365.000000	
51.199198	367.000000	
51.218919	326.000000	
51.238640	351.000000	
51.258362	358.000000	
51.278083	433.000000	
51.297804	449.000000	
51.317526	490.000000	
51.337247	548.000000	
51.356969	637.000000	
51.376690	775.000000	
51.396411	923.000000	
51.416133	1148.000000	
51.435854	1295.000000	
51.455575	1349.000000	
51.475297	1205.000000	
51.495018	1092.000000	
51.514739	1012.000000	
51.534461	1035.000000	
51.554182	1091.000000	
51.573904	1080.000000	
51.593625	1080.000000	
51.613346	975.000000	
51.633068	889.000000	
51.652789	782.000000	
51.672510	775.000000	
51.692232	714.000000	
51.711953	706.000000	
51.731674	705.000000	
51.751396	656.000000	
51.771117	720.000000	
51.790839	640.000000	
51.810560	713.000000	
51.830281	694.000000	
51.850003	691.000000	
51.869724	664.000000	
51.889445	662.000000	
51.909167	611.000000	
51.928888	644.000000	
51.948609	573.000000	
51.968331	526.000000	
51.988052	518.000000	
52.007774	537.000000	
52.027495	487.000000	
52.047216	435.000000	
52.066938	450.000000	
52.086659	406.000000	
52.106380	410.000000	
52.126102	398.000000	
52.145823	379.000000	
52.165544	390.000000	
52.185266	348.000000	
52.204987	327.000000	
52.224709	354.000000	
52.244430	359.000000	
52.264151	339.000000	
52.283873	320.000000	
52.303594	372.000000	
52.323315	304.000000	
52.343037	314.000000	
52.362758	281.000000	
52.382479	306.000000	
52.402201	329.000000	
52.421922	323.000000	
52.441644	313.000000	
52.461365	333.000000	
52.481086	333.000000	
52.500808	329.000000	
52.520529	323.000000	
52.540250	348.000000	
52.559972	281.000000	
52.579693	353.000000	
52.599414	346.000000	
52.619136	317.000000	
52.638857	319.000000	
52.658579	321.000000	
52.678300	349.000000	
52.698021	277.000000	
52.717743	328.000000	
52.737464	318.000000	
52.757185	309.000000	
52.776907	315.000000	
52.796628	297.000000	
52.816349	309.000000	
52.836071	347.000000	
52.855792	316.000000	
52.875514	320.000000	
52.895235	304.000000	
52.914956	291.000000	
52.934678	313.000000	
52.954399	328.000000	
52.974120	313.000000	
52.993842	308.000000	
53.013563	298.000000	
53.033284	301.000000	
53.053006	345.000000	
53.072727	328.000000	
53.092449	336.000000	
53.112170	315.000000	
53.131891	325.000000	
53.151613	316.000000	
53.171334	343.000000	
53.191055	338.000000	
53.210777	327.000000	
53.230498	329.000000	
53.250219	313.000000	
53.269941	295.000000	
53.289662	337.000000	
53.309384	313.000000	
53.329105	355.000000	
53.348826	319.000000	
53.368548	362.000000	
53.388269	346.000000	
53.407990	336.000000	
53.427712	330.000000	
53.447433	356.000000	
53.467154	356.000000	
53.486876	352.000000	
53.506597	334.000000	
53.526319	356.000000	
53.546040	380.000000	
53.565761	336.000000	
53.585483	365.000000	
53.605204	406.000000	
53.624925	389.000000	
53.644647	384.000000	
53.664368	424.000000	
53.684089	448.000000	
53.703811	394.000000	
53.723532	415.000000	
53.743254	401.000000	
53.762975	447.000000	
53.782696	405.000000	
53.802418	379.000000	
53.822139	404.000000	
53.841860	391.000000	
53.861582	370.000000	
53.881303	351.000000	
53.901024	363.000000	
53.920746	354.000000	
53.940467	344.000000	
53.960189	332.000000	
53.979910	315.000000	
53.999631	329.000000	
54.019353	323.000000	
54.039074	343.000000	
54.058795	334.000000	
54.078517	329.000000	
54.098238	331.000000	
54.117959	310.000000	
54.137681	337.000000	
54.157402	294.000000	
54.177124	326.000000	
54.196845	319.000000	
54.216566	321.000000	
54.236288	300.000000	
54.256009	297.000000	
54.275730	316.000000	
54.295452	317.000000	
54.315173	318.000000	
54.334894	333.000000	
54.354616	306.000000	
54.374337	325.000000	
54.394059	330.000000	
54.413780	325.000000	
54.433501	346.000000	
54.453223	304.000000	
54.472944	324.000000	
54.492665	316.000000	
54.512387	348.000000	
54.532108	344.000000	
54.551829	338.000000	
54.571551	295.000000	
54.591272	320.000000	
54.610994	335.000000	
54.630715	346.000000	
54.650436	322.000000	
54.670158	344.000000	
54.689879	354.000000	
54.709600	354.000000	
54.729322	375.000000	
54.749043	354.000000	
54.768764	354.000000	
54.788486	345.000000	
54.808207	368.000000	
54.827929	366.000000	
54.847650	352.000000	
54.867371	380.000000	
54.887093	361.000000	
54.906814	338.000000	
54.926535	395.000000	
54.946257	394.000000	
54.965978	400.000000	
54.985699	347.000000	
55.005421	386.000000	
55.025142	365.000000	
55.044864	355.000000	
55.064585	339.000000	
55.084306	347.000000	
55.104028	345.000000	
55.123749	342.000000	
55.143470	342.000000	
55.163192	331.000000	
55.182913	307.000000	
55.202634	314.000000	
55.222356	337.000000	
55.242077	331.000000	
55.261799	348.000000	
55.281520	308.000000	
55.301241	313.000000	
55.320963	273.000000	
55.340684	326.000000	
55.360405	314.000000	
55.380127	327.000000	
55.399848	353.000000	
55.419569	300.000000	
55.439291	302.000000	
55.459012	311.000000	
55.478734	305.000000	
55.498455	297.000000	
55.518176	347.000000	
55.537898	319.000000	
55.557619	313.000000	
55.577340	317.000000	
55.597062	320.000000	
55.616783	324.000000	
55.636504	364.000000	
55.656226	255.000000	
55.675947	266.000000	
55.695669	324.000000	
55.715390	307.000000	
55.735111	283.000000	
55.754833	326.000000	
55.774554	329.000000	
55.794275	297.000000	
55.813997	309.000000	
55.833718	340.000000	
55.853439	276.000000	
55.873161	282.000000	
55.892882	316.000000	
55.912604	328.000000	
55.932325	303.000000	
55.952046	313.000000	
55.971768	312.000000	
55.991489	294.000000	
56.011210	310.000000	
56.030932	339.000000	
56.050653	303.000000	
56.070374	311.000000	
56.090096	291.000000	
56.109817	325.000000	
56.129539	276.000000	
56.149260	330.000000	
56.168981	311.000000	
56.188703	303.000000	
56.208424	346.000000	
56.228145	310.000000	
56.247867	303.000000	
56.267588	294.000000	
56.287309	294.000000	
56.307031	297.000000	
56.326752	322.000000	
56.346474	318.000000	
56.366195	301.000000	
56.385916	330.000000	
56.405638	307.000000	
56.425359	306.000000	
56.445080	333.000000	
56.464802	323.000000	
56.484523	294.000000	
56.504244	323.000000	
56.523966	301.000000	
56.543687	335.000000	
56.563409	300.000000	
56.583130	288.000000	
56.602851	277.000000	
56.622573	327.000000	
56.642294	340.000000	
56.662015	314.000000	
56.681737	336.000000	
56.701458	306.000000	
56.721179	345.000000	
56.740901	318.000000	
56.760622	330.000000	
56.780344	348.000000	
56.800065	309.000000	
56.819786	357.000000	
56.839508	335.000000	
56.859229	336.000000	
56.878950	347.000000	
56.898672	343.000000	
56.918393	366.000000	
56.938114	351.000000	
56.957836	361.000000	
56.977557	374.000000	
56.997279	352.000000	
57.017000	384.000000	
57.036721	370.000000	
57.056443	386.000000	
57.076164	403.000000	
57.095885	443.000000	
57.115607	459.000000	
57.135328	481.000000	
57.155049	456.000000	
57.174771	463.000000	
57.194492	579.000000	
57.214214	543.000000	
57.233935	515.000000	
57.253656	549.000000	
57.273378	577.000000	
57.293099	516.000000	
57.312820	527.000000	
57.332542	506.000000	
57.352263	494.000000	
57.371984	485.000000	
57.391706	483.000000	
57.411427	423.000000	
57.431149	414.000000	
57.450870	415.000000	
57.470591	423.000000	
57.490313	364.000000	
57.510034	360.000000	
57.529755	395.000000	
57.549477	337.000000	
57.569198	392.000000	
57.588919	337.000000	
57.608641	340.000000	
57.628362	337.000000	
57.648084	330.000000	
57.667805	373.000000	
57.687526	333.000000	
57.707248	301.000000	
57.726969	329.000000	
57.746690	316.000000	
57.766412	308.000000	
57.786133	306.000000	
57.805854	321.000000	
57.825576	322.000000	
57.845297	337.000000	
57.865019	315.000000	
57.884740	298.000000	
57.904461	312.000000	
57.924183	311.000000	
57.943904	328.000000	
57.963625	310.000000	
57.983347	326.000000	
58.003068	294.000000	
58.022789	271.000000	
58.042511	283.000000	
58.062232	334.000000	
58.081954	290.000000	
58.101675	319.000000	
58.121396	321.000000	
58.141118	281.000000	
58.160839	306.000000	
58.180560	320.000000	
58.200282	314.000000	
58.220003	329.000000	
58.239724	340.000000	
58.259446	332.000000	
58.279167	290.000000	
58.298889	335.000000	
58.318610	330.000000	
58.338331	314.000000	
58.358053	316.000000	
58.377774	320.000000	
58.397495	321.000000	
58.417217	328.000000	
58.436938	312.000000	
58.456659	296.000000	
58.476381	301.000000	
58.496102	304.000000	
58.515824	302.000000	
58.535545	331.000000	
58.555266	295.000000	
58.574988	278.000000	
58.594709	345.000000	
58.614430	294.000000	
58.634152	313.000000	
58.653873	319.000000	
58.673594	294.000000	
58.693316	338.000000	
58.713037	298.000000	
58.732759	302.000000	
58.752480	350.000000	
58.772201	312.000000	
58.791923	294.000000	
58.811644	315.000000	
58.831365	304.000000	
58.851087	282.000000	
58.870808	318.000000	
58.890529	315.000000	
58.910251	295.000000	
58.929972	312.000000	
58.949694	312.000000	
58.969415	318.000000	
58.989136	281.000000	
59.008858	298.000000	
59.028579	307.000000	
59.048300	297.000000	
59.068022	305.000000	
59.087743	329.000000	
59.107464	290.000000	
59.127186	320.000000	
59.146907	295.000000	
59.166629	288.000000	
59.186350	275.000000	
59.206071	284.000000	
59.225793	324.000000	
59.245514	308.000000	
59.265235	308.000000	
59.284957	282.000000	
59.304678	320.000000	
59.324399	316.000000	
59.344121	292.000000	
59.363842	329.000000	
59.383564	290.000000	
59.403285	316.000000	
59.423006	309.000000	
59.442728	294.000000	
59.462449	286.000000	
59.482170	345.000000	
59.501892	287.000000	
59.521613	286.000000	
59.541334	283.000000	
59.561056	276.000000	
59.580777	306.000000	
59.600499	314.000000	
59.620220	286.000000	
59.639941	294.000000	
59.659663	300.000000	
59.679384	291.000000	
59.699105	322.000000	
59.718827	306.000000	
59.738548	323.000000	
59.758270	278.000000	
59.777991	341.000000	
59.797712	291.000000	
59.817434	281.000000	
59.837155	327.000000	
59.856876	301.000000	
59.876598	318.000000	
59.896319	297.000000	
59.916040	306.000000	
59.935762	318.000000	
59.955483	268.000000	
59.975205	313.000000	
59.994926	297.000000	
60.014647	304.000000	
60.034369	283.000000	
60.054090	315.000000	
60.073811	281.000000	
60.093533	307.000000	
60.113254	318.000000	
60.132975	290.000000	
60.152697	313.000000	
60.172418	283.000000	
60.192140	292.000000	
60.211861	316.000000	
60.231582	285.000000	
60.251304	308.000000	
60.271025	283.000000	
60.290746	281.000000	
60.310468	291.000000	
60.330189	293.000000	
60.349910	296.000000	
60.369632	318.000000	
60.389353	319.000000	
60.409075	292.000000	
60.428796	333.000000	
60.448517	276.000000	
60.468239	281.000000	
60.487960	318.000000	
60.507681	256.000000	
60.527403	287.000000	
60.547124	304.000000	
60.566845	308.000000	
60.586567	295.000000	
60.606288	289.000000	
60.626010	298.000000	
60.645731	280.000000	
60.665452	307.000000	
60.685174	314.000000	
60.704895	308.000000	
60.724616	310.000000	
60.744338	308.000000	
60.764059	319.000000	
60.783780	308.000000	
60.803502	283.000000	
60.823223	294.000000	
60.842945	273.000000	
60.862666	312.000000	
60.882387	318.000000	
60.902109	316.000000	
60.921830	259.000000	
60.941551	289.000000	
60.961273	291.000000	
60.980994	275.000000	
61.000715	311.000000	
61.020437	284.000000	
61.040158	281.000000	
61.059880	326.000000	
61.079601	292.000000	
61.099322	267.000000	
61.119044	290.000000	
61.138765	284.000000	
61.158486	337.000000	
61.178208	278.000000	
61.197929	302.000000	
61.217650	314.000000	
61.237372	324.000000	
61.257093	296.000000	
61.276815	313.000000	
61.296536	308.000000	
61.316257	323.000000	
61.335979	307.000000	
61.355700	314.000000	
61.375421	295.000000	
61.395143	295.000000	
61.414864	311.000000	
61.434585	303.000000	
61.454307	288.000000	
61.474028	314.000000	
61.493750	275.000000	
61.513471	328.000000	
61.533192	276.000000	
61.552914	301.000000	
61.572635	287.000000	
61.592356	283.000000	
61.612078	327.000000	
61.631799	343.000000	
61.651520	285.000000	
61.671242	281.000000	
61.690963	330.000000	
61.710685	302.000000	
61.730406	287.000000	
61.750127	324.000000	
61.769849	298.000000	
61.789570	270.000000	
61.809291	285.000000	
61.829013	289.000000	
61.848734	310.000000	
61.868455	292.000000	
61.888177	302.000000	
61.907898	296.000000	
61.927620	308.000000	
61.947341	325.000000	
61.967062	283.000000	
61.986784	326.000000	
62.006505	261.000000	
62.026226	273.000000	
62.045948	291.000000	
62.065669	325.000000	
62.085390	301.000000	
62.105112	285.000000	
62.124833	286.000000	
62.144555	299.000000	
62.164276	283.000000	
62.183997	280.000000	
62.203719	310.000000	
62.223440	313.000000	
62.243161	290.000000	
62.262883	304.000000	
62.282604	310.000000	
62.302325	300.000000	
62.322047	302.000000	
62.341768	308.000000	
62.361490	302.000000	
62.381211	341.000000	
62.400932	323.000000	
62.420654	342.000000	
62.440375	328.000000	
62.460096	345.000000	
62.479818	355.000000	
62.499539	346.000000	
62.519260	360.000000	
62.538982	365.000000	
62.558703	368.000000	
62.578425	362.000000	
62.598146	359.000000	
62.617867	371.000000	
62.637589	393.000000	
62.657310	421.000000	
62.677031	462.000000	
62.696753	495.000000	
62.716474	427.000000	
62.736195	528.000000	
62.755917	524.000000	
62.775638	590.000000	
62.795360	667.000000	
62.815081	719.000000	
62.834802	730.000000	
62.854524	785.000000	
62.874245	789.000000	
62.893966	817.000000	
62.913688	754.000000	
62.933409	708.000000	
62.953130	684.000000	
62.972852	696.000000	
62.992573	698.000000	
63.012295	682.000000	
63.032016	638.000000	
63.051737	605.000000	
63.071459	554.000000	
63.091180	563.000000	
63.110901	496.000000	
63.130623	479.000000	
63.150344	467.000000	
63.170065	417.000000	
63.189787	385.000000	
63.209508	403.000000	
63.229230	402.000000	
63.248951	372.000000	
63.268672	378.000000	
63.288394	353.000000	
63.308115	352.000000	
63.327836	344.000000	
63.347558	331.000000	
63.367279	304.000000	
63.387000	300.000000	
63.406722	350.000000	
63.426443	339.000000	
63.446165	339.000000	
63.465886	318.000000	
63.485607	345.000000	
63.505329	308.000000	
63.525050	309.000000	
63.544771	358.000000	
63.564493	335.000000	
63.584214	309.000000	
63.603935	363.000000	
63.623657	333.000000	
63.643378	319.000000	
63.663100	326.000000	
63.682821	373.000000	
63.702542	325.000000	
63.722264	284.000000	
63.741985	313.000000	
63.761706	297.000000	
63.781428	266.000000	
63.801149	310.000000	
63.820870	290.000000	
63.840592	327.000000	
63.860313	292.000000	
63.880035	297.000000	
63.899756	291.000000	
63.919477	325.000000	
63.939199	301.000000	
63.958920	269.000000	
63.978641	308.000000	
63.998363	300.000000	
64.018084	287.000000	
64.037805	301.000000	
64.057527	323.000000	
64.077248	290.000000	
64.096970	287.000000	
64.116691	341.000000	
64.136412	288.000000	
64.156134	304.000000	
64.175855	311.000000	
64.195576	314.000000	
64.215298	286.000000	
64.235019	329.000000	
64.254740	313.000000	
64.274462	315.000000	
64.294183	321.000000	
64.313905	299.000000	
64.333626	331.000000	
64.353347	298.000000	
64.373069	300.000000	
64.392790	314.000000	
64.412511	308.000000	
64.432233	289.000000	
64.451954	281.000000	
64.471675	276.000000	
64.491397	317.000000	
64.511118	326.000000	
64.530840	304.000000	
64.550561	282.000000	
64.570282	294.000000	
64.590004	313.000000	
64.609725	293.000000	
64.629446	310.000000	
64.649168	320.000000	
64.668889	296.000000	
64.688610	292.000000	
64.708332	314.000000	
64.728053	311.000000	
64.747775	335.000000	
64.767496	293.000000	
64.787217	310.000000	
64.806939	282.000000	
64.826660	319.000000	
64.846381	318.000000	
64.866103	285.000000	
64.885824	301.000000	
64.905545	298.000000	
64.925267	320.000000	
64.944988	289.000000	
64.964710	294.000000	
64.984431	315.000000	
65.004152	333.000000	
65.023874	303.000000	
65.043595	311.000000	
65.063316	319.000000	
65.083038	341.000000	
65.102759	342.000000	
65.122480	308.000000	
65.142202	327.000000	
65.161923	342.000000	
65.181645	361.000000	
65.201366	324.000000	
65.221087	337.000000	
65.240809	329.000000	
65.260530	301.000000	
65.280251	306.000000	
65.299973	314.000000	
65.319694	336.000000	
65.339415	332.000000	
65.359137	298.000000	
65.378858	308.000000	
65.398580	301.000000	
65.418301	337.000000	
65.438022	317.000000	
65.457744	320.000000	
65.477465	326.000000	
65.497186	306.000000	
65.516908	296.000000	
65.536629	304.000000	
65.556350	282.000000	
65.576072	298.000000	
65.595793	278.000000	
65.615515	304.000000	
65.635236	316.000000	
65.654957	338.000000	
65.674679	339.000000	
65.694400	290.000000	
65.714121	286.000000	
65.733843	285.000000	
65.753564	335.000000	
65.773285	318.000000	
65.793007	291.000000	
65.812728	281.000000	
65.832450	274.000000	
65.852171	323.000000	
65.871892	328.000000	
65.891614	323.000000	
65.911335	294.000000	
65.931056	268.000000	
65.950778	292.000000	
65.970499	300.000000	
65.990220	284.000000	
66.009942	283.000000	
66.029663	295.000000	
66.049385	290.000000	
66.069106	315.000000	
66.088827	285.000000	
66.108549	292.000000	
66.128270	309.000000	
66.147991	267.000000	
66.167713	294.000000	
66.187434	271.000000	
66.207155	305.000000	
66.226877	295.000000	
66.246598	283.000000	
66.266320	287.000000	
66.286041	289.000000	
66.305762	322.000000	
66.325484	338.000000	
66.345205	306.000000	
66.364926	261.000000	
66.384648	289.000000	
66.404369	322.000000	
66.424090	296.000000	
66.443812	285.000000	
66.463533	277.000000	
66.483255	257.000000	
66.502976	306.000000	
66.522697	298.000000	
66.542419	313.000000	
66.562140	294.000000	
66.581861	274.000000	
66.601583	306.000000	
66.621304	283.000000	
66.641025	294.000000	
66.660747	279.000000	
66.680468	261.000000	
66.700190	296.000000	
66.719911	316.000000	
66.739632	318.000000	
66.759354	329.000000	
66.779075	306.000000	
66.798796	255.000000	
66.818518	295.000000	
66.838239	299.000000	
66.857960	279.000000	
66.877682	275.000000	
66.897403	304.000000	
66.917125	298.000000	
66.936846	284.000000	
66.956567	300.000000	
66.976289	289.000000	
66.996010	281.000000	
67.015731	291.000000	
67.035453	312.000000	
67.055174	304.000000	
67.074895	285.000000	
67.094617	326.000000	
67.114338	322.000000	
67.134060	268.000000	
67.153781	273.000000	
67.173502	278.000000	
67.193224	310.000000	
67.212945	266.000000	
67.232666	296.000000	
67.252388	285.000000	
67.272109	309.000000	
67.291830	289.000000	
67.311552	256.000000	
67.331273	288.000000	
67.350995	262.000000	
67.370716	286.000000	
67.390437	289.000000	
67.410159	283.000000	
67.429880	273.000000	
67.449601	317.000000	
67.469323	299.000000	
67.489044	291.000000	
67.508765	305.000000	
67.528487	298.000000	
67.548208	289.000000	
67.567930	302.000000	
67.587651	299.000000	
67.607372	288.000000	
67.627094	278.000000	
67.646815	269.000000	
67.666536	312.000000	
67.686258	287.000000	
67.705979	289.000000	
67.725700	263.000000	
67.745422	305.000000	
67.765143	264.000000	
67.784865	285.000000	
67.804586	253.000000	
67.824307	283.000000	
67.844029	287.000000	
67.863750	298.000000	
67.883471	259.000000	
67.903193	304.000000	
67.922914	317.000000	
67.942635	282.000000	
67.962357	296.000000	
67.982078	309.000000	
68.001800	298.000000	
68.021521	295.000000	
68.041242	287.000000	
68.060964	313.000000	
68.080685	295.000000	
68.100406	314.000000	
68.120128	269.000000	
68.139849	314.000000	
68.159570	293.000000	
68.179292	267.000000	
68.199013	301.000000	
68.218735	294.000000	
68.238456	292.000000	
68.258177	310.000000	
68.277899	285.000000	
68.297620	312.000000	
68.317341	302.000000	
68.337063	274.000000	
68.356784	296.000000	
68.376505	267.000000	
68.396227	314.000000	
68.415948	287.000000	
68.435670	287.000000	
68.455391	282.000000	
68.475112	272.000000	
68.494834	314.000000	
68.514555	294.000000	
68.534276	268.000000	
68.553998	262.000000	
68.573719	319.000000	
68.593441	277.000000	
68.613162	251.000000	
68.632883	289.000000	
68.652605	294.000000	
68.672326	246.000000	
68.692047	262.000000	
68.711769	288.000000	
68.731490	279.000000	
68.751211	266.000000	
68.770933	316.000000	
68.790654	280.000000	
68.810376	307.000000	
68.830097	255.000000	
68.849818	277.000000	
68.869540	282.000000	
68.889261	288.000000	
68.908982	257.000000	
68.928704	288.000000	
68.948425	272.000000	
68.968146	273.000000	
68.987868	244.000000	
69.007589	286.000000	
69.027311	292.000000	
69.047032	300.000000	
69.066753	256.000000	
69.086475	273.000000	
69.106196	278.000000	
69.125917	308.000000	
69.145639	307.000000	
69.165360	292.000000	
69.185081	239.000000	
69.204803	302.000000	
69.224524	282.000000	
69.244246	277.000000	
69.263967	299.000000	
69.283688	285.000000	
69.303410	270.000000	
69.323131	288.000000	
69.342852	291.000000	
69.362574	278.000000	
69.382295	274.000000	
69.402016	271.000000	
69.421738	284.000000	
69.441459	297.000000	
69.461181	323.000000	
69.480902	274.000000	
69.500623	310.000000	
69.520345	283.000000	
69.540066	268.000000	
69.559787	247.000000	
69.579509	275.000000	
69.599230	290.000000	
69.618951	290.000000	
69.638673	273.000000	
69.658394	277.000000	
69.678116	277.000000	
69.697837	285.000000	
69.717558	314.000000	
69.737280	316.000000	
69.757001	273.000000	
69.776722	268.000000	
69.796444	288.000000	
69.816165	303.000000	
69.835886	273.000000	
69.855608	272.000000	
69.875329	275.000000	
69.895051	289.000000	
69.914772	265.000000	
69.934493	311.000000	
69.954215	267.000000	
69.973936	286.000000	
69.993657	291.000000	
70.013379	285.000000	
70.033100	289.000000	
70.052821	290.000000	
70.072543	283.000000	
70.092264	282.000000	
70.111986	265.000000	
70.131707	286.000000	
70.151428	276.000000	
70.171150	290.000000	
70.190871	277.000000	
70.210592	283.000000	
70.230314	272.000000	
70.250035	286.000000	
70.269756	278.000000	
70.289478	294.000000	
70.309199	277.000000	
70.328921	288.000000	
70.348642	250.000000	
70.368363	295.000000	
70.388085	270.000000	
70.407806	287.000000	
70.427527	310.000000	
70.447249	268.000000	
70.466970	278.000000	
70.486691	276.000000	
70.506413	302.000000	
70.526134	323.000000	
70.545856	251.000000	
70.565577	265.000000	
70.585298	252.000000	
70.605020	278.000000	
70.624741	285.000000	
70.644462	306.000000	
70.664184	274.000000	
70.683905	299.000000	
70.703626	303.000000	
70.723348	276.000000	
70.743069	257.000000	
70.762791	276.000000	
70.782512	277.000000	
70.802233	255.000000	
70.821955	309.000000	
70.841676	280.000000	
70.861397	315.000000	
70.881119	307.000000	
70.900840	280.000000	
70.920561	300.000000	
70.940283	279.000000	
70.960004	271.000000	
70.979726	304.000000	
70.999447	323.000000	
71.019168	277.000000	
71.038890	265.000000	
71.058611	281.000000	
71.078332	277.000000	
71.098054	301.000000	
71.117775	299.000000	
71.137496	293.000000	
71.157218	292.000000	
71.176939	280.000000	
71.196661	296.000000	
71.216382	275.000000	
71.236103	286.000000	
71.255825	289.000000	
71.275546	276.000000	
71.295267	273.000000	
71.314989	278.000000	
71.334710	283.000000	
71.354431	342.000000	
71.374153	272.000000	
71.393874	289.000000	
71.413596	286.000000	
71.433317	285.000000	
71.453038	257.000000	
71.472760	275.000000	
71.492481	298.000000	
71.512202	296.000000	
71.531924	273.000000	
71.551645	267.000000	
71.571366	297.000000	
71.591088	328.000000	
71.610809	274.000000	
71.630531	294.000000	
71.650252	275.000000	
71.669973	298.000000	
71.689695	313.000000	
71.709416	289.000000	
71.729137	296.000000	
71.748859	272.000000	
71.768580	319.000000	
71.788301	279.000000	
71.808023	289.000000	
71.827744	300.000000	
71.847466	279.000000	
71.867187	273.000000	
71.886908	257.000000	
71.906630	313.000000	
71.926351	279.000000	
71.946072	275.000000	
71.965794	260.000000	
71.985515	282.000000	
72.005236	276.000000	
72.024958	268.000000	
72.044679	278.000000	
72.064401	265.000000	
72.084122	268.000000	
72.103843	324.000000	
72.123565	287.000000	
72.143286	274.000000	
72.163007	312.000000	
72.182729	283.000000	
72.202450	301.000000	
72.222171	286.000000	
72.241893	284.000000	
72.261614	304.000000	
72.281336	280.000000	
72.301057	279.000000	
72.320778	270.000000	
72.340500	280.000000	
72.360221	283.000000	
72.379942	267.000000	
72.399664	295.000000	
72.419385	290.000000	
72.439106	266.000000	
72.458828	255.000000	
72.478549	272.000000	
72.498271	311.000000	
72.517992	295.000000	
72.537713	273.000000	
72.557435	289.000000	
72.577156	295.000000	
72.596877	281.000000	
72.616599	304.000000	
72.636320	280.000000	
72.656041	297.000000	
72.675763	277.000000	
72.695484	297.000000	
72.715206	264.000000	
72.734927	295.000000	
72.754648	297.000000	
72.774370	288.000000	
72.794091	294.000000	
72.813812	281.000000	
72.833534	266.000000	
72.853255	283.000000	
72.872976	301.000000	
72.892698	270.000000	
72.912419	283.000000	
72.932141	281.000000	
72.951862	302.000000	
72.971583	320.000000	
72.991305	301.000000	
73.011026	272.000000	
73.030747	268.000000	
73.050469	293.000000	
73.070190	306.000000	
73.089911	274.000000	
73.109633	319.000000	
73.129354	276.000000	
73.149076	300.000000	
73.168797	291.000000	
73.188518	269.000000	
73.208240	247.000000	
73.227961	298.000000	
73.247682	265.000000	
73.267404	273.000000	
73.287125	272.000000	
73.306846	296.000000	
73.326568	302.000000	
73.346289	269.000000	
73.366011	278.000000	
73.385732	292.000000	
73.405453	295.000000	
73.425175	316.000000	
73.444896	286.000000	
73.464617	275.000000	
73.484339	270.000000	
73.504060	302.000000	
73.523781	290.000000	
73.543503	271.000000	
73.563224	307.000000	
73.582946	293.000000	
73.602667	281.000000	
73.622388	271.000000	
73.642110	275.000000	
73.661831	251.000000	
73.681552	302.000000	
73.701274	281.000000	
73.720995	267.000000	
73.740716	260.000000	
73.760438	286.000000	
73.780159	282.000000	
73.799881	286.000000	
73.819602	283.000000	
73.839323	263.000000	
73.859045	273.000000	
73.878766	291.000000	
73.898487	294.000000	
73.918209	285.000000	
73.937930	275.000000	
73.957651	268.000000	
73.977373	282.000000	
73.997094	278.000000	
74.016816	304.000000	
74.036537	300.000000	
74.056258	286.000000	
74.075980	298.000000	
74.095701	302.000000	
74.115422	277.000000	
74.135144	327.000000	
74.154865	299.000000	
74.174586	366.000000	
74.194308	320.000000	
74.214029	358.000000	
74.233751	329.000000	
74.253472	367.000000	
74.273193	316.000000	
74.292915	345.000000	
74.312636	345.000000	
74.332357	327.000000	
74.352079	354.000000	
74.371800	346.000000	
74.391521	362.000000	
74.411243	327.000000	
74.430964	342.000000	
74.450686	365.000000	
74.470407	356.000000	
74.490128	318.000000	
74.509850	327.000000	
74.529571	346.000000	
74.549292	355.000000	
74.569014	338.000000	
74.588735	318.000000	
74.608456	354.000000	
74.628178	312.000000	
74.647899	296.000000	
74.667621	320.000000	
74.687342	327.000000	
74.707063	292.000000	
74.726785	326.000000	
74.746506	285.000000	
74.766227	298.000000	
74.785949	293.000000	
74.805670	334.000000	
74.825391	271.000000	
74.845113	274.000000	
74.864834	323.000000	
74.884556	290.000000	
74.904277	271.000000	
74.923998	276.000000	
74.943720	277.000000	
74.963441	298.000000	
74.983162	296.000000	
75.002884	285.000000	
75.022605	291.000000	
75.042326	274.000000	
75.062048	277.000000	
75.081769	317.000000	
75.101491	284.000000	
75.121212	291.000000	
75.140933	305.000000	
75.160655	300.000000	
75.180376	310.000000	
75.200097	313.000000	
75.219819	297.000000	
75.239540	304.000000	
75.259261	304.000000	
75.278983	320.000000	
75.298704	334.000000	
75.318426	333.000000	
75.338147	305.000000	
75.357868	347.000000	
75.377590	351.000000	
75.397311	358.000000	
75.417032	354.000000	
75.436754	344.000000	
75.456475	337.000000	
75.476196	284.000000	
75.495918	326.000000	
75.515639	369.000000	
75.535361	410.000000	
75.555082	416.000000	
75.574803	461.000000	
75.594525	494.000000	
75.614246	587.000000	
75.633967	668.000000	
75.653689	626.000000	
75.673410	630.000000	
75.693131	595.000000	
75.712853	523.000000	
75.732574	512.000000	
75.752296	491.000000	
75.772017	496.000000	
75.791738	451.000000	
75.811460	495.000000	
75.831181	520.000000	
75.850902	543.000000	
75.870624	565.000000	
75.890345	530.000000	
75.910066	513.000000	
75.929788	492.000000	
75.949509	463.000000	
75.969231	460.000000	
75.988952	374.000000	
76.008673	419.000000	
76.028395	389.000000	
76.048116	421.000000	
76.067837	373.000000	
76.087559	410.000000	
76.107280	362.000000	
76.127001	370.000000	
76.146723	348.000000	
76.166444	364.000000	
76.186166	335.000000	
76.205887	381.000000	
76.225608	375.000000	
76.245330	373.000000	
76.265051	359.000000	
76.284772	378.000000	
76.304494	353.000000	
76.324215	385.000000	
76.343936	384.000000	
76.363658	421.000000	
76.383379	406.000000	
76.403101	400.000000	
76.422822	382.000000	
76.442543	382.000000	
76.462265	377.000000	
76.481986	352.000000	
76.501707	334.000000	
76.521429	340.000000	
76.541150	334.000000	
76.560871	337.000000	
76.580593	364.000000	
76.600314	322.000000	
76.620036	349.000000	
76.639757	328.000000	
76.659478	304.000000	
76.679200	319.000000	
76.698921	311.000000	
76.718642	299.000000	
76.738364	285.000000	
76.758085	282.000000	
76.777806	278.000000	
76.797528	286.000000	
76.817249	287.000000	
76.836971	313.000000	
76.856692	263.000000	
76.876413	300.000000	
76.896135	305.000000	
76.915856	327.000000	
76.935577	278.000000	
76.955299	276.000000	
76.975020	277.000000	
76.994741	280.000000	
77.014463	261.000000	
77.034184	271.000000	
77.053906	280.000000	
77.073627	278.000000	
77.093348	294.000000	
77.113070	301.000000	
77.132791	269.000000	
77.152512	266.000000	
77.172234	240.000000	
77.191955	270.000000	
77.211676	288.000000	
77.231398	251.000000	
77.251119	273.000000	
77.270841	296.000000	
77.290562	278.000000	
77.310283	282.000000	
77.330005	242.000000	
77.349726	283.000000	
77.369447	274.000000	
77.389169	259.000000	
77.408890	262.000000	
77.428612	269.000000	
77.448333	287.000000	
77.468054	300.000000	
77.487776	274.000000	
77.507497	279.000000	
77.527218	274.000000	
77.546940	264.000000	
77.566661	265.000000	
77.586382	259.000000	
77.606104	279.000000	
77.625825	281.000000	
77.645547	254.000000	
77.665268	278.000000	
77.684989	279.000000	
77.704711	275.000000	
77.724432	251.000000	
77.744153	263.000000	
77.763875	286.000000	
77.783596	260.000000	
77.803317	296.000000	
77.823039	282.000000	
77.842760	289.000000	
77.862482	273.000000	
77.882203	262.000000	
77.901924	290.000000	
77.921646	285.000000	
77.941367	314.000000	
77.961088	263.000000	
77.980810	288.000000	
78.000531	251.000000	
78.020252	274.000000	
78.039974	267.000000	
78.059695	275.000000	
78.079417	262.000000	
78.099138	269.000000	
78.118859	265.000000	
78.138581	241.000000	
78.158302	276.000000	
78.178023	261.000000	
78.197745	261.000000	
78.217466	258.000000	
78.237187	269.000000	
78.256909	276.000000	
78.276630	296.000000	
78.296352	268.000000	
78.316073	258.000000	
78.335794	282.000000	
78.355516	272.000000	
78.375237	265.000000	
78.394958	312.000000	
78.414680	271.000000	
78.434401	263.000000	
78.454122	296.000000	
78.473844	274.000000	
78.493565	263.000000	
78.513287	294.000000	
78.533008	267.000000	
78.552729	297.000000	
78.572451	303.000000	
78.592172	287.000000	
78.611893	268.000000	
78.631615	258.000000	
78.651336	270.000000	
78.671057	268.000000	
78.690779	286.000000	
78.710500	259.000000	
78.730222	264.000000	
78.749943	267.000000	
78.769664	278.000000	
78.789386	297.000000	
78.809107	268.000000	
78.828828	278.000000	
78.848550	264.000000	
78.868271	262.000000	
78.887992	264.000000	
78.907714	258.000000	
78.927435	278.000000	
78.947157	263.000000	
78.966878	304.000000	
78.986599	282.000000	
79.006321	289.000000	
79.026042	278.000000	
79.045763	291.000000	
79.065485	292.000000	
79.085206	294.000000	
79.104927	324.000000	
79.124649	264.000000	
79.144370	330.000000	
79.164092	361.000000	
79.183813	327.000000	
79.203534	349.000000	
79.223256	403.000000	
79.242977	383.000000	
79.262698	425.000000	
79.282420	439.000000	
79.302141	454.000000	
79.321862	499.000000	
79.341584	493.000000	
79.361305	475.000000	
79.381027	469.000000	
79.400748	455.000000	
79.420469	462.000000	
79.440191	490.000000	
79.459912	454.000000	
79.479633	440.000000	
79.499355	418.000000	
79.519076	418.000000	
79.538797	401.000000	
79.558519	431.000000	
79.578240	397.000000	
79.597962	436.000000	
79.617683	385.000000	
79.637404	436.000000	
79.657126	361.000000	
79.676847	353.000000	
79.696568	359.000000	
79.716290	345.000000	
79.736011	318.000000	
79.755732	332.000000	
79.775454	315.000000	
79.795175	290.000000	
79.814897	275.000000	
79.834618	291.000000	
79.854339	253.000000	
79.874061	315.000000	
79.893782	276.000000	
79.913503	269.000000	
79.933225	288.000000	
79.952946	277.000000	
79.972667	288.000000	
79.992389	255.000000	
80.012110	270.000000	
80.031832	291.000000	
80.051553	284.000000	
80.071274	268.000000	
80.090996	261.000000	
80.110717	277.000000	
80.130438	252.000000	
80.150160	288.000000	
80.169881	283.000000	
80.189602	249.000000	
80.209324	261.000000	
80.229045	279.000000	
80.248767	267.000000	
80.268488	298.000000	
80.288209	277.000000	
80.307931	271.000000	
80.327652	253.000000	
80.347373	264.000000	
80.367095	255.000000	
80.386816	228.000000	
80.406537	261.000000	
80.426259	271.000000	
80.445980	268.000000	
80.465702	277.000000	
80.485423	243.000000	
80.505144	253.000000	
80.524866	285.000000	
80.544587	256.000000	
80.564308	265.000000	
80.584030	267.000000	
80.603751	272.000000	
80.623472	302.000000	
80.643194	245.000000	
80.662915	275.000000	
80.682637	249.000000	
80.702358	234.000000	
80.722079	273.000000	
80.741801	243.000000	
80.761522	251.000000	
80.781243	252.000000	
80.800965	258.000000	
80.820686	271.000000	
80.840407	260.000000	
80.860129	244.000000	
80.879850	274.000000	
80.899572	277.000000	
80.919293	305.000000	
80.939014	247.000000	
80.958736	262.000000	
80.978457	274.000000	
80.998178	268.000000	
81.017900	262.000000	
81.037621	258.000000	
81.057342	258.000000	
81.077064	274.000000	
81.096785	247.000000	
81.116507	228.000000	
81.136228	281.000000	
81.155949	291.000000	
81.175671	226.000000	
81.195392	272.000000	
81.215113	263.000000	
81.234835	272.000000	
81.254556	244.000000	
81.274277	259.000000	
81.293999	244.000000	
81.313720	281.000000	
81.333442	270.000000	
81.353163	260.000000	
81.372884	253.000000	
81.392606	264.000000	
81.412327	233.000000	
81.432048	286.000000	
81.451770	249.000000	
81.471491	238.000000	
81.491212	243.000000	
81.510934	229.000000	
81.530655	263.000000	
81.550377	271.000000	
81.570098	258.000000	
81.589819	229.000000	
81.609541	252.000000	
81.629262	275.000000	
81.648983	262.000000	
81.668705	271.000000	
81.688426	257.000000	
81.708147	261.000000	
81.727869	241.000000	
81.747590	279.000000	
81.767312	265.000000	
81.787033	303.000000	
81.806754	251.000000	
81.826476	282.000000	
81.846197	226.000000	
81.865918	242.000000	
81.885640	284.000000	
81.905361	245.000000	
81.925082	255.000000	
81.944804	239.000000	
81.964525	266.000000	
81.984247	249.000000	
82.003968	251.000000	
82.023689	275.000000	
82.043411	225.000000	
82.063132	265.000000	
82.082853	234.000000	
82.102575	270.000000	
82.122296	245.000000	
82.142017	269.000000	
82.161739	252.000000	
82.181460	253.000000	
82.201182	231.000000	
82.220903	257.000000	
82.240624	259.000000	
82.260346	260.000000	
82.280067	246.000000	
82.299788	256.000000	
82.319510	255.000000	
82.339231	264.000000	
82.358952	240.000000	
82.378674	267.000000	
82.398395	278.000000	
82.418117	287.000000	
82.437838	281.000000	
82.457559	288.000000	
82.477281	255.000000	
82.497002	252.000000	
82.516723	237.000000	
82.536445	265.000000	
82.556166	257.000000	
82.575887	268.000000	
82.595609	276.000000	
82.615330	264.000000	
82.635052	240.000000	
82.654773	266.000000	
82.674494	277.000000	
82.694216	255.000000	
82.713937	252.000000	
82.733658	258.000000	
82.753380	239.000000	
82.773101	245.000000	
82.792822	241.000000	
82.812544	225.000000	
82.832265	240.000000	
82.851987	223.000000	
82.871708	263.000000	
82.891429	254.000000	
82.911151	250.000000	
82.930872	274.000000	
82.950593	263.000000	
82.970315	234.000000	
82.990036	249.000000	
83.009757	269.000000	
83.029479	274.000000	
83.049200	257.000000	
83.068922	258.000000	
83.088643	264.000000	
83.108364	230.000000	
83.128086	261.000000	
83.147807	231.000000	
83.167528	257.000000	
83.187250	232.000000	
83.206971	253.000000	
83.226692	236.000000	
83.246414	225.000000	
83.266135	240.000000	
83.285857	249.000000	
83.305578	249.000000	
83.325299	242.000000	
83.345021	233.000000	
83.364742	222.000000	
83.384463	261.000000	
83.404185	258.000000	
83.423906	234.000000	
83.443627	241.000000	
83.463349	255.000000	
83.483070	254.000000	
83.502792	257.000000	
83.522513	283.000000	
83.542234	282.000000	
83.561956	245.000000	
83.581677	272.000000	
83.601398	241.000000	
83.621120	264.000000	
83.640841	254.000000	
83.660562	288.000000	
83.680284	223.000000	
83.700005	243.000000	
83.719727	270.000000	
83.739448	228.000000	
83.759169	267.000000	
83.778891	242.000000	
83.798612	280.000000	
83.818333	229.000000	
83.838055	262.000000	
83.857776	263.000000	
83.877497	268.000000	
83.897219	250.000000	
83.916940	244.000000	
83.936662	253.000000	
83.956383	240.000000	
83.976104	272.000000	
83.995826	254.000000	
84.015547	252.000000	
84.035268	260.000000	
84.054990	252.000000	
84.074711	251.000000	
84.094432	250.000000	
84.114154	237.000000	
84.133875	247.000000	
84.153597	239.000000	
84.173318	247.000000	
84.193039	236.000000	
84.212761	243.000000	
84.232482	224.000000	
84.252203	235.000000	
84.271925	277.000000	
84.291646	257.000000	
84.311367	278.000000	
84.331089	225.000000	
84.350810	261.000000	
84.370532	258.000000	
84.390253	234.000000	
84.409974	267.000000	
84.429696	266.000000	
84.449417	252.000000	
84.469138	241.000000	
84.488860	240.000000	
84.508581	252.000000	
84.528302	247.000000	
84.548024	263.000000	
84.567745	254.000000	
84.587467	262.000000	
84.607188	245.000000	
84.626909	242.000000	
84.646631	255.000000	
84.666352	255.000000	
84.686073	246.000000	
84.705795	243.000000	
84.725516	273.000000	
84.745237	305.000000	
84.764959	240.000000	
84.784680	255.000000	
84.804402	231.000000	
84.824123	232.000000	
84.843844	249.000000	
84.863566	234.000000	
84.883287	243.000000	
84.903008	257.000000	
84.922730	281.000000	
84.942451	231.000000	
84.962172	239.000000	
84.981894	233.000000	
85.001615	263.000000	
85.021337	267.000000	
85.041058	237.000000	
85.060779	261.000000	
85.080501	241.000000	
85.100222	275.000000	
85.119943	240.000000	
85.139665	234.000000	
85.159386	251.000000	
85.179107	259.000000	
85.198829	242.000000	
85.218550	240.000000	
85.238272	241.000000	
85.257993	256.000000	
85.277714	247.000000	
85.297436	257.000000	
85.317157	238.000000	
85.336878	230.000000	
85.356600	269.000000	
85.376321	246.000000	
85.396042	240.000000	
85.415764	226.000000	
85.435485	256.000000	
85.455207	261.000000	
85.474928	240.000000	
85.494649	267.000000	
85.514371	240.000000	
85.534092	251.000000	
85.553813	264.000000	
85.573535	238.000000	
85.593256	219.000000	
85.612977	199.000000	
85.632699	236.000000	
85.652420	246.000000	
85.672142	211.000000	
85.691863	244.000000	
85.711584	220.000000	
85.731306	258.000000	
85.751027	243.000000	
85.770748	246.000000	
85.790470	227.000000	
85.810191	252.000000	
85.829912	259.000000	
85.849634	264.000000	
85.869355	222.000000	
85.889077	220.000000	
85.908798	232.000000	
85.928519	212.000000	
85.948241	240.000000	
85.967962	249.000000	
85.987683	251.000000	
86.007405	217.000000	
86.027126	236.000000	
86.046848	264.000000	
86.066569	271.000000	
86.086290	244.000000	
86.106012	261.000000	
86.125733	255.000000	
86.145454	250.000000	
86.165176	241.000000	
86.184897	259.000000	
86.204618	250.000000	
86.224340	217.000000	
86.244061	244.000000	
86.263783	256.000000	
86.283504	243.000000	
86.303225	243.000000	
86.322947	249.000000	
86.342668	260.000000	
86.362389	273.000000	
86.382111	226.000000	
86.401832	274.000000	
86.421553	238.000000	
86.441275	235.000000	
86.460996	259.000000	
86.480718	258.000000	
86.500439	259.000000	
86.520160	277.000000	
86.539882	252.000000	
86.559603	237.000000	
86.579324	242.000000	
86.599046	271.000000	
86.618767	249.000000	
86.638488	233.000000	
86.658210	240.000000	
86.677931	240.000000	
86.697653	231.000000	
86.717374	274.000000	
86.737095	239.000000	
86.756817	246.000000	
86.776538	260.000000	
86.796259	270.000000	
86.815981	253.000000	
86.835702	241.000000	
86.855423	279.000000	
86.875145	253.000000	
86.894866	244.000000	
86.914588	224.000000	
86.934309	243.000000	
86.954030	259.000000	
86.973752	230.000000	
86.993473	293.000000	
87.013194	269.000000	
87.032916	230.000000	
87.052637	252.000000	
87.072358	261.000000	
87.092080	253.000000	
87.111801	241.000000	
87.131523	250.000000	
87.151244	279.000000	
87.170965	273.000000	
87.190687	254.000000	
87.210408	285.000000	
87.230129	261.000000	
87.249851	241.000000	
87.269572	254.000000	
87.289293	257.000000	
87.309015	245.000000	
87.328736	276.000000	
87.348458	253.000000	
87.368179	290.000000	
87.387900	234.000000	
87.407622	231.000000	
87.427343	245.000000	
87.447064	246.000000	
87.466786	287.000000	
87.486507	264.000000	
87.506228	235.000000	
87.525950	270.000000	
87.545671	239.000000	
87.565393	246.000000	
87.585114	253.000000	
87.604835	271.000000	
87.624557	235.000000	
87.644278	240.000000	
87.663999	225.000000	
87.683721	240.000000	
87.703442	247.000000	
87.723163	236.000000	
87.742885	244.000000	
87.762606	261.000000	
87.782328	222.000000	
87.802049	237.000000	
87.821770	218.000000	
87.841492	262.000000	
87.861213	244.000000	
87.880934	234.000000	
87.900656	243.000000	
87.920377	242.000000	
87.940098	226.000000	
87.959820	250.000000	
87.979541	247.000000	
87.999263	242.000000	
88.018984	250.000000	
88.038705	246.000000	
88.058427	239.000000	
88.078148	229.000000	
88.097869	226.000000	
88.117591	258.000000	
88.137312	254.000000	
88.157033	237.000000	
88.176755	217.000000	
88.196476	235.000000	
88.216198	256.000000	
88.235919	225.000000	
88.255640	216.000000	
88.275362	251.000000	
88.295083	251.000000	
88.314804	241.000000	
88.334526	225.000000	
88.354247	249.000000	
88.373968	246.000000	
88.393690	232.000000	
88.413411	246.000000	
88.433133	241.000000	
88.452854	247.000000	
88.472575	233.000000	
88.492297	232.000000	
88.512018	195.000000	
88.531739	272.000000	
88.551461	270.000000	
88.571182	244.000000	
88.590903	246.000000	
88.610625	253.000000	
88.630346	250.000000	
88.650068	222.000000	
88.669789	222.000000	
88.689510	223.000000	
88.709232	239.000000	
88.728953	237.000000	
88.748674	218.000000	
88.768396	249.000000	
88.788117	247.000000	
88.807838	224.000000	
88.827560	247.000000	
88.847281	220.000000	
88.867003	235.000000	
88.886724	248.000000	
88.906445	247.000000	
88.926167	195.000000	
88.945888	238.000000	
88.965609	246.000000	
88.985331	210.000000	
89.005052	249.000000	
89.024773	235.000000	
89.044495	233.000000	
89.064216	220.000000	
89.083938	214.000000	
89.103659	212.000000	
89.123380	249.000000	
89.143102	261.000000	
89.162823	239.000000	
89.182544	236.000000	
89.202266	239.000000	
89.221987	229.000000	
89.241708	251.000000	
89.261430	240.000000	
89.281151	264.000000	
89.300873	245.000000	
89.320594	235.000000	
89.340315	247.000000	
89.360037	229.000000	
89.379758	219.000000	
89.399479	231.000000	
89.419201	226.000000	
89.438922	217.000000	
89.458643	247.000000	
89.478365	245.000000	
89.498086	245.000000	
89.517808	243.000000	
89.537529	259.000000	
89.557250	235.000000	
89.576972	261.000000	
89.596693	265.000000	
89.616414	265.000000	
89.636136	242.000000	
89.655857	237.000000	
89.675578	250.000000	
89.695300	266.000000	
89.715021	258.000000	
89.734743	273.000000	
89.754464	266.000000	
89.774185	253.000000	
89.793907	270.000000	
89.813628	244.000000	
89.833349	266.000000	
89.853071	255.000000	
89.872792	262.000000	
89.892513	281.000000	
89.912235	270.000000	
89.931956	277.000000	
89.951678	299.000000	
89.971399	272.000000	
89.991120	285.000000	
