?
20.0     6
20.01972 6
20.03944 6
20.05916 6
20.07888 5
20.09860 12
20.11832 13
20.13805 7
20.15777 6
20.17749 2
20.19721 5
20.21693 7
20.23665 7
20.25637 7
20.27609 2
20.29582 6
20.31554 10
20.33526 17
20.35498 23
20.37470 26
20.39442 26
20.41414 22
20.43387 17
20.45359 16
20.47331 18
20.49303 19
20.51275 20
20.53247 15
20.55219 15
20.57192 8
20.59164 9
20.61136 9
20.63108 1
20.65080 2
20.67052 1
20.69024 4
20.70996 11
20.72969 7
20.74941 13
20.76913 12
20.78885 6
20.80857 11
20.82829 7
20.84801 12
20.86774 14
20.88746 17
20.90718 26
20.92690 25
20.94662 17
20.96634 9
20.98606 1
21.00578 7
21.02551 11
21.04523 21
21.06495 24
21.08467 20
21.10439 18
21.12411 22
21.14383 23
21.16356 20
21.18328 15
21.20300 11
21.22272 14
21.24244 16
21.26216 21
21.28188 21
21.30161 20
21.32133 14
21.34105 13
21.36077 16
21.38049 23
21.40021 21
21.41993 19
21.43965 8
21.45938 14
21.47910 12
21.49882 6
21.51854 2
21.53826 9
21.55798 14
21.57770 16
21.59743 10
21.61715 12
21.63687 9
21.65659 1
21.67631 3
21.69603 12
21.71575 23
21.73547 22
21.75520 23
21.77492 20
21.79464 14
21.81436 4
21.83408 4
21.85380 7
21.87352 23
21.89325 20
21.91297 17
21.93269 11
21.95241 8
21.97213 3
21.99185 8
22.01158 11
22.03130 25
22.05102 14
22.07074 3
22.09046 1
22.11018 4
22.12990 11
22.14963 18
22.16935 16
22.18907 15
22.20879 14
22.22851 15
22.24823 16
22.26795 11
22.28767 12
22.3074  17
22.32712 21
22.34684 18
22.36656 21
22.38628 22
22.40600 25
22.42572 22
22.44545 21
22.46517 16
22.48489 11
22.50461 1
22.52433 3
22.54405 11
22.56377 25
22.58349 31
22.60322 30
22.62294 23
22.64266 18
22.66238 8
22.68210 5
22.70182 5
22.72154 12
22.74127 18
22.76099 13
22.78071 12
22.80043 8
22.82015 9
22.83987 10
22.85959 14
22.87932 14
22.89904 18
22.91876 20
22.93848 29
22.95820 24
22.97792 23
22.99764 14
23.01736 10
23.03709 4
23.05681 7
23.07653 16
23.09625 32
23.11597 37
23.13569 30
23.15541 23
23.17514 19
23.19486 27
23.21458 22
23.23430 18
23.25402 16
23.27374 17
23.29346 13
23.31318 15
23.33291 16
23.35263 20
23.37235 15
23.39207 6
23.41179 3
23.43151 2
23.45123 12
23.47096 19
23.49068 17
23.51040 14
23.53012 11
23.54984 20
23.56956 15
23.58928 22
23.60900 22
23.62873 19
23.64845 3
23.66817 5
23.68789 7
23.70761 21
23.72733 17
23.74705 28
23.76678 23
23.78650 23
23.80622 9
23.82594 11
23.84566 7
23.86538 11
23.88510 7
23.90483 8
23.92455 11
23.94427 17
23.96399 17
23.98371 16
24.00343 15
24.02315 15
24.04287 22
24.06260 26
24.08232 30
24.10204 24
24.12176 22
24.14148 15
24.16120 15
24.18092 12
24.20065 29
24.22037 37
24.24009 35
24.25981 27
24.27953 22
24.29925 14
24.31897 19
24.33869 20
24.35842 30
24.37814 32
24.39786 41
24.41758 31
24.43730 35
24.45702 40
24.47674 56
24.49647 57
24.51619 54
24.53591 46
24.55563 48
24.57535 41
24.59507 51
24.61479 50
24.63452 48
24.65424 31
24.67396 20
24.69368 17
24.71340 19
24.73312 26
24.75285 18
24.77257 13
24.79229 10
24.81201 6
24.83173 12
24.85145 18
24.87117 17
24.89089 22
24.91062 11
24.93034 20
24.95006 18
24.96978 25
24.98950 23
25.00922 18
25.02894 14
25.04867 16
25.06839 14
25.08811 26
25.10783 24
25.12755 26
25.14727 22
25.16699 17
25.18671 19
25.20644 20
25.22616 21
25.24588 20
25.26560 11
25.28532 10
25.30504 15
25.32476 16
25.34449 16
25.36421 24
25.38393 27
25.40365 23
25.42337 25
25.44309 22
25.46281 24
25.48254 11
25.50226 11
25.52198 19
25.54170 23
25.56142 25
25.58114 27
25.60086 22
25.62058 14
25.64031 7
25.66003 4
25.67975 12
25.69947 18
25.71919 29
25.73891 33
25.75863 29
25.77836 24
25.79808 20
25.81780 5
25.83752 2
25.85724 4
25.87696 8
25.89668 8
25.91640 18
25.93613 24
25.95585 33
25.97557 25
25.99529 25
26.01501 20
26.03473 17
26.05445 15
26.07418 19
26.09390 12
26.11362 16
26.13334 13
26.15306 19
26.17278 21
26.19250 24
26.21223 28
26.23195 28
26.25167 27
26.27139 20
26.29111 13
26.31083 6
26.33055 1
26.35027 0
26.37000 4
26.38972 22
26.40944 27
26.42916 24
26.44888 16
26.46860 12
26.48832 13
26.50805 18
26.52777 26
26.54749 31
26.56721 20
26.58693 12
26.60665 2
26.62637 7
26.64609 17
26.66582 23
26.68554 22
26.70526 17
26.72498 11
26.74470 13
26.76442 5
26.78414 14
26.80387 12
26.82359 15
26.84331 15
26.86303 15
26.88275 24
26.90247 22
26.92219 18
26.94192 20
26.96164 13
26.98136 18
27.00108 15
27.02080 15
27.04052 26
27.06024 21
27.07996 29
27.09969 19
27.11941 16
27.13913 19
27.15885 10
27.17857 11
27.19829 18
27.21801 12
27.23774 25
27.25746 14
27.27718 19
27.29690 28
27.31662 20
27.33634 18
27.35607 14
27.37579 9
27.39551 10
27.41523 6
27.43495 9
27.45467 15
27.47439 13
27.49411 20
27.51384 14
27.53356 21
27.55328 23
27.57300 28
27.59272 28
27.61244 30
27.63216 22
27.65189 16
27.67161 7
27.69133 7
27.71105 8
27.73077 13
27.75049 23
27.77021 28
27.78994 21
27.80966 11
27.82938 14
27.84910 10
27.86882 11
27.88854 15
27.90826 11
27.92798 6
27.94771 6
27.96743 3
27.98715 19
28.00687 29
28.02659 38
28.04631 43
28.06603 29
28.08576 19
28.10548 14
28.12520 7
28.14492 13
28.16464 21
28.18436 28
28.20408 30
28.22380 24
28.24353 11
28.26325 3
28.28297 2
28.30269 1
28.32241 8
28.34213 16
28.36185 19
28.38158 19
28.4013  7
28.42102 5
28.44074 3
28.46046 6
28.48018 16
28.49990 21
28.51963 30
28.53935 27
28.55907 25
28.57879 20
28.59851 14
28.61823 13
28.63795 11
28.65767 14
28.67740 17
28.69712 18
28.71684 20
28.73656 15
28.75628 7
28.77600 8
28.79572 1
28.81545 3
28.83517 7
28.85489 22
28.87461 30
28.89433 33
28.91405 27
28.93377 17
28.95349 3
28.97322 3
28.99294 11
29.01266 25
29.03238 28
29.05210 32
29.07182 28
29.09154 22
29.11127 18
29.13099 18
29.15071 13
29.17043 11
29.19015 2
29.20987 6
29.22959 19
29.24931 22
29.26904 26
29.28876 27
29.30848 30
29.32820 28
29.34792 26
29.36764 30
29.38736 30
29.40709 21
29.42681 14
29.44653 9
29.46625 11
29.48597 21
29.50569 29
29.52541 30
29.54514 23
29.56486 22
29.58458 13
29.60430 9
29.62402 20
29.64374 25
29.66346 29
29.68318 30
29.70291 26
29.72263 31
29.74235 19
29.76207 16
29.78179 16
29.80151 4
29.82123 10
29.84096 18
29.86068 30
29.88040 40
29.90012 37
29.91984 36
29.93956 22
29.95929 20
29.97901 31
29.99873 39
30.01845 52
30.03817 58
30.05789 68
30.07761 80
30.09734 97
30.11706 117
30.13678 145
30.15650 166
30.17622 191
30.19594 214
30.21566 261
30.23538 329
30.25511 390
30.27483 411
30.29455 399
30.31427 342
30.33399 277
30.35371 187
30.37343 133
30.39316 99
30.41288 69
30.43260 54
30.45232 34
30.47204 17
30.49176 19
30.51148 23
30.53120 35
30.55093 40
30.57065 30
30.59037 34
30.61009 29
30.62981 22
30.64953 21
30.66925 22
30.68898 21
30.7087  19
30.72842 10
30.74814 15
30.76786 15
30.78758 19
30.80730 26
30.82702 19
30.84675 18
30.86647 16
30.88619 16
30.90591 22
30.92563 26
30.94535 33
30.96507 37
30.9848  27
31.00452 21
31.02424 13
31.04396 9
31.06368 8
31.08340 13
31.10312 13
31.12285 15
31.14257 15
31.16229 16
31.18201 14
31.20173 17
31.22145 19
31.24117 22
31.26089 17
31.28062 12
31.30034 12
31.32006 11
31.33978 13
31.35950 18
31.37922 24
31.39894 22
31.41867 21
31.43839 20
31.45811 20
31.47783 16
31.49755 20
31.51727 17
31.53699 15
31.55671 12
31.57644 5
31.59616 8
31.61588 11
31.63560 10
31.65532 16
31.67504 13
31.69476 9
31.71449 7
31.73421 3
31.75393 8
31.77365 19
31.79337 26
31.81309 33
31.83281 34
31.85254 25
31.87226 17
31.89198 6
31.91170 10
31.93142 11
31.95114 26
31.97086 34
31.99058 32
32.01031 26
32.03003 21
32.04975 15
32.06947 11
32.08919 15
32.10891 25
32.12863 20
32.14836 16
32.16808 13
32.18780 11
32.20752 9
32.22724 9
32.24696 17
32.26668 21
32.28641 17
32.30613 23
32.32585 29
32.34557 24
32.36529 13
32.38501 7
32.40473 3
32.42446 0
32.44418 3
32.46390 13
32.48362 22
32.50334 20
32.52306 20
32.54278 17
32.56250 15
32.58223 10
32.60195 17
32.62167 14
32.64139 15
32.66111 19
32.68083 26
32.70055 31
32.72028 34
32.74000 27
32.75972 24
32.77944 16
32.79916 9
32.81888 18
32.83860 27
32.85833 32
32.87805 35
32.89777 32
32.91749 25
32.93721 20
32.95693 9
32.97665 14
32.99638 16
33.01610 17
33.03582 13
33.05554 12
33.07526 8
33.09498 5
33.11470 10
33.13443 27
33.15415 33
33.17387 41
33.19359 39
33.21331 27
33.23303 18
33.25275 11
33.27248 8
33.29219 23
33.31192 27
33.33164 46
33.35136 49
33.37108 39
33.39080 40
33.41052 26
33.43024 8
33.44997 18
33.46969 27
33.48941 58
33.50913 81
33.52885 100
33.54857 107
33.56829 100
33.58802 88
33.60774 77
33.62746 76
33.64718 82
33.66690 82
33.68662 79
33.70634 71
33.72607 76
33.74579 74
33.76551 67
33.78523 72
33.80495 61
33.82467 50
33.84439 34
33.86412 26
33.88384 34
33.90356 31
33.92328 34
33.94300 37
33.96272 33
33.98244 24
34.00217 16
34.02188 19
34.04161 19
34.06133 18
34.08105 28
34.10077 27
34.12049 29
34.14021 26
34.15993 27
34.17966 32
34.19938 39
34.21910 44
34.23882 48
34.25854 38
34.27826 28
34.29798 11
34.31771 8
34.33743 3
34.35715 12
34.37687 23
34.39659 25
34.41631 27
34.43603 26
34.45576 24
34.47548 29
34.49520 33
34.51492 34
34.53464 37
34.55436 33
34.57408 25
34.59381 23
34.61353 24
34.63325 30
34.65297 34
34.67269 35
34.69241 43
34.71213 36
34.73186 28
34.75157 22
34.77130 15
34.79102 16
34.81074 20
34.83046 20
34.85018 32
34.86990 24
34.88962 28
34.90935 28
34.92907 30
34.94879 31
34.96851 37
34.98823 36
35.00795 37
35.02767 26
35.04740 27
35.06712 18
35.08684 19
35.10656 23
35.12628 27
35.14600 26
35.16573 28
35.18545 25
35.20517 29
35.22489 28
35.24461 38
35.26433 50
35.28405 53
35.30378 57
35.32350 65
35.34322 76
35.36294 88
35.38266 105
35.40238 142
35.42210 184
35.44183 232
35.46155 278
35.48127 337
35.50099 390
35.52071 442
35.54043 517
35.56015 626
35.57988 750
35.59959 885
35.61932 973
35.63904 1001
35.65876 935
35.67848 787
35.69820 609
35.71792 439
35.73764 306
35.75737 213
35.77709 166
35.79681 132
35.81653 111
35.83625 85
35.85597 68
35.87569 54
35.89542 56
35.91514 48
35.93486 53
35.95458 47
35.97430 58
35.99402 62
36.01374 67
36.03347 66
36.05319 71
36.07291 69
36.09263 67
36.11235 69
36.13207 78
36.15179 92
36.17152 108
36.19124 104
36.21096 100
36.23068 95
36.25040 81
36.27012 72
36.28984 68
36.30957 82
36.32928 87
36.34901 89
36.36873 94
36.38845 90
36.40817 67
36.42789 52
36.44761 36
36.46733 27
36.48706 22
36.50678 26
36.52650 20
36.54622 26
36.56594 26
36.58566 37
36.60538 40
36.62511 56
36.64483 57
36.66455 53
36.68427 38
36.70399 29
36.72371 14
36.74343 7
36.76316 12
36.78288 29
36.80260 32
36.82232 46
36.84204 54
36.86176 53
36.88148 45
36.90121 46
36.92092 47
36.94065 49
36.96037 44
36.98009 66
36.99981 89
37.01953 113
37.03926 136
37.05897 169
37.07870 206
37.09842 269
37.11814 364
37.13786 509
37.15758 689
37.17730 917
37.19702 1209
37.21675 1550
37.23647 1918
37.25619 2252
37.27591 2450
37.29563 2417
37.31535 2161
37.33507 1751
37.35480 1289
37.37452 861
37.39424 551
37.41396 364
37.43368 265
37.45340 201
37.47312 172
37.49285 142
37.51257 121
37.53229 96
37.55201 72
37.57173 50
37.59145 36
37.61117 30
37.63090 40
37.65062 41
37.67034 40
37.69006 40
37.70978 39
37.72950 35
37.74922 24
37.76894 26
37.78867 29
37.80839 29
37.82811 24
37.84783 31
37.86755 29
37.88728 21
37.90699 21
37.92672 23
37.94644 21
37.96616 14
37.98588 24
38.00560 23
38.02532 28
38.04504 21
38.06477 25
38.08449 20
38.10421 14
38.12393 4
38.14365 12
38.16337 11
38.18309 18
38.20282 22
38.22254 20
38.24226 23
38.26198 20
38.28170 16
38.30142 15
38.32114 12
38.34087 12
38.36059 19
38.38031 14
38.40003 28
38.41975 35
38.43947 40
38.45919 37
38.47892 34
38.49863 22
38.51836 7
38.53808 2
38.55780 0
38.57752 7
38.59724 16
38.61697 33
38.63668 38
38.65641 32
38.67613 19
38.69585 10
38.71557 3
38.73529 9
38.75501 11
38.77473 23
38.79446 28
38.81418 33
38.83390 29
38.85362 28
38.87334 22
38.89306 19
38.91278 16
38.93251 12
38.95223 11
38.97195 12
38.99167 4
39.01139 4
39.03111 12
39.05083 11
39.07056 16
39.09028 18
39.11000 26
39.12972 18
39.14944 9
39.16916 10
39.18888 14
39.20861 12
39.22832 17
39.24805 29
39.26777 35
39.28749 33
39.30721 28
39.32693 20
39.34665 12
39.36637 0
39.38610 0
39.40582 0
39.42554 0
39.44526 14
39.46498 24
39.48470 30
39.50442 24
39.52415 16
39.54387 3
39.56359 0
39.58331 0
39.60303 6
39.62275 13
39.64247 19
39.66220 21
39.68192 23
39.70164 19
39.72136 19
39.74108 20
39.76080 17
39.78052 11
39.80025 11
39.81997 17
39.83969 17
39.85941 17
39.87913 18
39.89885 18
39.91857 14
39.93830 11
39.95801 8
39.97774 10
39.99746 9
40.01718 7
40.03690 1
40.05662 8
40.07634 8
40.09606 14
40.11579 17
40.13551 17
40.15523 3
40.17495 0
40.19467 0
40.21439 0
40.23411 0
40.25384 0
40.27356 4
40.29328 15
40.31300 16
40.33272 13
40.35244 16
40.37216 7
40.39189 0
40.41161 0
40.43133 0
40.45105 0
40.47077 0
40.49049 2
40.51022 17
40.52994 25
40.54966 27
40.56938 29
40.58910 28
40.60882 18
40.62854 14
40.64827 0
40.66799 0
40.68771 0
40.70743 0
40.72715 0
40.74687 5
40.76659 3
40.78632 2
40.80603 4
40.82576 0
40.84548 6
40.86520 6
40.88492 0
40.90464 1
40.92436 6
40.94408 7
40.96381 3
40.98353 12
41.00325 12
41.02297 2
41.04269 0
41.06241 0
41.08213 0
41.10186 1
41.12158 4
41.14130 17
41.16102 10
41.18074 1
41.20046 6
41.22018 0
41.23991 0
41.25963 5
41.27935 12
41.29907 8
41.31879 9
41.33851 10
41.35823 19
41.37796 17
41.39768 22
41.4174  32
41.43712 32
41.45684 32
41.47656 37
41.49628 41
41.51601 42
41.53572 29
41.55545 28
41.57517 21
41.59489 1
41.61461 2
41.63433 5
41.65405 18
41.67377 22
41.69350 26
41.71322 31
41.73294 21
41.75266 8
41.77238 8
41.79210 4
41.81182 3
41.83155 4
41.85127 10
41.87099 11
41.89071 2
41.91043 0
41.93015 4
41.94987 5
41.96960 2
41.98932 8
42.00904 10
42.02876 14
42.04848 3
42.06820 0
42.08792 0
42.10765 0
42.12737 0
42.14709 6
42.16681 6
42.18653 6
42.20625 3
42.22597 9
42.24570 6
42.26541 5
42.28514 0
42.30486 1
42.32458 0
42.34430 0
42.36402 0
42.38374 18
42.40346 20
42.42319 30
42.44291 19
42.46263 17
42.48235 9
42.50207 2
42.52179 1
42.54151 7
42.56124 5
42.58096 13
42.60068 13
42.62040 22
42.64012 21
42.65984 25
42.67956 28
42.69929 25
42.71901 16
42.73873 5
42.75845 3
42.77817 2
42.79789 0
42.81761 2
42.83734 14
42.85706 25
42.87678 22
42.89650 24
42.91622 27
42.93594 23
42.95566 22
42.97539 18
42.99511 25
43.01483 35
43.03455 39
43.05427 59
43.07399 72
43.09371 87
43.11343 103
43.13316 116
43.15288 132
43.17260 154
43.19232 176
43.21204 220
43.23176 272
43.25148 344
43.27121 433
43.29093 508
43.31065 542
43.33037 532
43.35009 478
43.36981 399
43.38953 290
43.40926 198
43.42898 138
43.44870 93
43.46842 58
43.48814 44
43.50786 44
43.52758 33
43.54731 20
43.56703 22
43.58675 26
43.60647 28
43.62619 20
43.64591 30
43.66563 28
43.68536 19
43.70508 20
43.7248  28
43.74452 40
43.76424 46
43.78396 44
43.80368 44
43.82341 40
43.84312 36
43.86285 34
43.88257 44
43.90229 56
43.92201 63
43.94173 75
43.96145 87
43.98117 116
44.0009  166
44.02062 266
44.04034 392
44.06006 522
44.07978 808
44.09950 1536
44.11922 2584
44.13895 3479
44.15867 4018
44.17839 4131
44.19811 3768
44.21783 2994
44.23755 2181
44.25727 1720
44.277   1517
44.29672 1287
44.31644 1081
44.33616 904
44.35588 792
44.37560 679
44.39532 598
44.41505 561
44.43477 533
44.45449 517
44.47421 526
44.49393 525
44.51365 555
44.53337 542
44.55310 497
44.57281 420
44.59254 318
44.61226 216
44.63198 139
44.65170 93
44.67142 75
44.69114 68
44.71086 71
44.73059 75
44.75031 77
44.77003 60
44.78975 52
44.80947 36
44.82919 14
44.84891 0
44.86864 0
44.88836 6
44.90808 12
44.92780 24
44.94752 35
44.96724 39
44.98696 39
45.00669 34
45.02641 28
45.04613 20
45.06585 27
45.08557 30
45.10529 24
45.12501 17
45.14474 18
45.16446 10
45.18418 1
45.20390 0
45.22362 0
45.24334 12
45.26306 5
45.28279 14
45.30250 22
45.32223 12
45.34195 17
45.36167 6
45.38139 18
45.40111 20
45.42083 4
45.44055 16
45.46028 10
45.48000 13
45.49972 14
45.51944 14
45.53916 35
45.55888 33
45.57860 32
45.59833 33
45.61805 20
45.63777 7
45.65749 3
45.67721 0
45.69693 0
45.71666 1
45.73638 16
45.75610 21
45.77582 17
45.79554 9
45.81526 13
45.83498 12
45.85471 3
45.87443 0
45.89415 0
45.91387 0
45.93359 5
45.95331 13
45.97303 26
45.99276 28
46.01248 30
46.0322  27
46.05192 17
46.07164 13
46.09136 0
46.11108 3
46.13081 0
46.15052 2
46.17025 5
46.18997 10
46.20969 16
46.22941 19
46.24913 20
46.26885 26
46.28857 28
46.3083  21
46.32802 10
46.34774 8
46.36746 6
46.38718 8
46.40690 3
46.42662 7
46.44635 8
46.46607 8
46.48579 5
46.50551 7
46.52523 5
46.54495 14
46.56467 24
46.5844  31
46.60412 33
46.62384 35
46.64356 26
46.66328 16
46.68300 4
46.70272 5
46.72245 6
46.74217 3
46.76189 12
46.78161 13
46.80133 11
46.82105 12
46.84077 16
46.8605  18
46.88021 15
46.89994 11
46.91966 19
46.93938 14
46.95910 8
46.97882 9
46.99854 11
47.01826 11
47.03799 10
47.05771 15
47.07743 22
47.09715 20
47.11687 18
47.13659 24
47.15631 26
47.17604 24
47.19576 26
47.21548 25
47.23520 19
47.25492 8
47.27464 5
47.29436 7
47.31409 8
47.33381 10
47.35353 19
47.37325 33
47.39297 38
47.41269 36
47.43241 36
47.45214 30
47.47186 22
47.49158 16
47.51130 8
47.53102 12
47.55074 14
47.57046 12
47.59019 0
47.60990 0
47.62963 0
47.64935 7
47.66907 15
47.68879 25
47.70851 43
47.72823 48
47.74795 42
47.76768 37
47.78740 28
47.80712 20
47.82684 9
47.84656 3
47.86628 2
47.88600 4
47.90573 13
47.92545 20
47.94517 24
47.96489 34
47.98461 32
48.00433 29
48.02405 15
48.04378 16
48.06350 10
48.08322 12
48.10294 10
48.12266 18
48.14238 26
48.16210 30
48.18183 27
48.20155 29
48.22127 22
48.24099 15
48.26071 18
48.28043 13
48.30015 18
48.31988 20
48.3396  27
48.35932 32
48.37904 26
48.39876 27
48.41848 33
48.43821 22
48.45792 24
48.47765 19
48.49737 16
48.51709 22
48.53681 20
48.55653 29
48.57625 26
48.59597 22
48.6157  24
48.63542 20
48.65514 9
48.67486 9
48.69458 10
48.71430 14
48.73402 14
48.75375 10
48.77347 15
48.79319 17
48.81291 14
48.83263 15
48.85235 21
48.87207 22
48.8918  23
48.91152 12
48.93124 10
48.95096 1
48.97068 1
48.99040 0
49.01012 4
49.02985 19
49.04956 26
49.06929 32
49.08901 41
49.10873 35
49.12845 38
49.14817 31
49.1679  24
49.18761 19
49.20734 20
49.22706 14
49.24678 14
49.26650 19
49.28622 23
49.30594 29
49.32566 26
49.34539 23
49.36511 30
49.38483 19
49.40455 14
49.42427 27
49.44399 22
49.46371 23
49.48344 21
49.50316 10
49.52288 11
49.54260 6
49.56232 7
49.58204 15
49.60176 15
49.62149 24
49.64121 30
49.66093 32
49.68065 36
49.70037 37
49.72009 33
49.73981 26
49.75954 24
49.77925 24
49.79898 26
49.81870 34
49.83842 37
49.85814 34
49.87786 29
49.89759 24
49.91730 16
49.93703 19
49.95675 12
49.97647 15
49.99619 16
50.01591 16
50.03563 20
50.05535 21
50.07508 25
50.09480 39
50.11452 43
50.13424 44
50.15396 53
50.17368 49
50.19340 47
50.21313 35
50.23285 24
50.25257 22
50.27229 25
50.29201 14
50.31173 27
50.33145 35
50.35118 45
50.37090 44
50.39062 39
50.41034 36
50.43006 35
50.44978 17
50.46950 23
50.48923 21
50.50894 25
50.52867 29
50.54839 29
50.56811 35
50.58783 44
50.60755 36
50.62727 40
50.64699 23
50.66672 18
50.68644 16
50.70616 9
50.72588 10
50.74560 16
50.76532 20
50.78504 26
50.80477 21
50.82449 20
50.84421 24
50.86393 25
50.88365 13
50.90337 13
50.9231  20
50.94282 21
50.96254 26
50.98226 28
51.00198 34
51.02170 37
51.04142 31
51.06115 33
51.08087 20
51.10059 5
51.12031 6
51.14003 11
51.15975 17
51.17947 28
51.1992  34
51.21892 53
51.23864 62
51.25836 76
51.27808 103
51.29780 140
51.31752 183
51.33725 243
51.35696 329
51.37669 468
51.39641 639
51.41613 786
51.43585 872
51.45557 873
51.47529 799
51.49501 680
51.51474 543
51.53446 433
51.55418 371
51.57390 336
51.59362 307
51.61334 284
51.63306 261
51.65279 253
51.67251 249
51.69223 238
51.71195 242
51.73167 241
51.75139 243
51.77111 256
51.79084 263
51.81056 267
51.83028 278
51.85000 261
51.86972 261
51.88944 239
51.90916 210
51.92889 174
51.94861 148
51.96833 121
51.98805 102
52.00777 74
52.02749 65
52.04721 60
52.06694 53
52.08665 43
52.10638 48
52.12610 51
52.14582 45
52.16554 39
52.18526 30
52.20498 28
52.22470 23
52.24443 22
52.26415 23
52.28387 25
52.30359 13
52.32331 3
52.34303 0
52.36275 0
52.38248 0
52.40220 4
52.42192 9
52.44164 24
52.46136 26
52.48108 34
52.50080 30
52.52053 29
52.54025 28
52.55997 26
52.57969 21
52.59941 16
52.61913 18
52.63885 18
52.65858 6
52.67830 5
52.69802 6
52.71774 9
52.73746 6
52.75718 0
52.77690 9
52.79663 10
52.81634 18
52.83607 22
52.85579 17
52.87551 14
52.89523 13
52.91495 6
52.93467 9
52.95439 5
52.97412 1
52.99384 4
53.01356 5
53.03328 11
53.05300 21
53.07272 26
53.09244 28
53.11217 29
53.13189 25
53.15161 28
53.17133 29
53.19105 28
53.21077 18
53.23049 15
53.25022 3
53.26994 8
53.28966 8
53.30938 14
53.32910 25
53.34882 37
53.36854 37
53.38827 43
53.40799 42
53.42771 48
53.44743 40
53.46715 37
53.48687 40
53.50659 39
53.52632 31
53.54604 37
53.56576 46
53.58548 55
53.60520 63
53.62492 79
53.64465 95
53.66436 103
53.68409 98
53.70381 103
53.72353 102
53.74325 88
53.76297 77
53.78269 72
53.80241 58
53.82214 48
53.84186 32
53.86158 28
53.88130 26
53.90102 22
53.92074 16
53.94046 15
53.96019 13
53.97991 13
53.99963 17
54.01935 20
54.03907 27
54.05879 28
54.07851 31
54.09824 26
54.11796 20
54.13768 17
54.15740 16
54.17712 12
54.19684 8
54.21656 1
54.23629 5
54.25601 1
54.27573 8
54.29545 12
54.31517 19
54.33489 25
54.35461 26
54.37434 33
54.39405 33
54.41378 31
54.43350 27
54.45322 23
54.47294 21
54.49266 27
54.51238 24
54.53210 23
54.55183 20
54.57155 22
54.59127 18
54.61099 21
54.63071 26
54.65043 36
54.67015 43
54.68988 49
54.70960 55
54.72932 59
54.74904 57
54.76876 57
54.78848 50
54.80820 47
54.82793 51
54.84765 44
54.86737 43
54.88709 42
54.90681 55
54.92653 60
54.94625 65
54.96598 71
54.98570 71
55.00542 58
55.02514 49
55.04486 39
55.06458 34
55.08430 23
55.10403 22
55.12374 16
55.14347 11
55.16319 12
55.18291 11
55.20263 18
55.22235 24
55.24207 32
55.26179 28
55.28152 23
55.30124 14
55.32096 9
55.34068 15
55.36040 21
55.38012 22
55.39984 24
55.41957 18
55.43929 12
55.45901 13
55.47873 14
55.49845 20
55.51817 20
55.53789 21
55.55762 20
55.57734 35
55.59706 32
55.61678 23
55.63650 15
55.65622 9
55.67594 3
55.69567 0
55.71539 0
55.73511 10
55.75483 11
55.77455 17
55.79427 25
55.81399 23
55.83372 15
55.85343 17
55.87316 18
55.89288 13
55.91260 15
55.93232 20
55.95204 12
55.97176 13
55.99148 16
56.01121 21
56.03093 17
56.05065 23
56.07037 16
56.09009 12
56.10981 12
56.12953 12
56.14926 17
56.16898 23
56.18870 24
56.20842 26
56.22814 19
56.24786 15
56.26759 11
56.28731 7
56.30703 8
56.32675 14
56.34647 19
56.36619 18
56.38591 23
56.40564 27
56.42536 28
56.44508 31
56.46480 24
56.48452 26
56.50424 24
56.52396 20
56.54369 10
56.56341 5
56.58313 3
56.60285 6
56.62257 15
56.64229 23
56.66201 34
56.68174 39
56.70145 36
56.72118 43
56.74090 44
56.76062 44
56.78034 44
56.80006 38
56.81978 38
56.83950 35
56.85923 40
56.87895 44
56.89867 42
56.91839 52
56.93811 54
56.95783 62
56.97755 65
56.99728 66
57.01700 67
57.03672 74
57.05644 87
57.07616 108
57.09588 125
57.11560 130
57.13533 151
57.15505 174
57.17477 187
57.19449 196
57.21421 211
57.23393 215
57.25365 209
57.27338 190
57.29310 178
57.31282 157
57.33254 138
57.35226 116
57.37198 96
57.39170 70
57.41143 62
57.43114 53
57.45087 37
57.47059 38
57.49031 35
57.51003 40
57.52975 41
57.54947 46
57.56919 50
57.58892 41
57.60864 44
57.62836 50
57.64808 39
57.66780 38
57.68752 34
57.70724 24
57.72697 13
57.74669 8
57.76641 8
57.78613 12
57.80585 20
57.82557 23
57.84529 25
57.86502 26
57.88474 28
57.90446 28
57.92418 29
57.94390 33
57.96362 28
57.98334 12
58.00307 8
58.02279 1
58.04251 1
58.06223 8
58.08195 14
58.10167 14
58.12139 14
58.14112 17
58.16083 24
58.18056 31
58.20028 43
58.22000 44
58.23972 39
58.25944 40
58.27916 39
58.29888 32
58.31861 27
58.33833 24
58.35805 23
58.37777 20
58.39749 21
58.41721 19
58.43693 14
58.45666 9
58.47638 13
58.49610 15
58.51582 11
58.53554 19
58.55526 18
58.57498 19
58.59471 24
58.61443 22
58.63415 30
58.65387 30
58.67359 21
58.69331 27
58.71303 30
58.73276 28
58.75248 28
58.77220 25
58.79192 18
58.81164 12
58.83136 10
58.85108 11
58.87081 12
58.89053 11
58.91025 19
58.92997 21
58.94969 17
58.96941 19
58.98914 19
59.00885 13
59.02858 17
59.04830 17
59.06802 23
59.08774 22
59.10746 23
59.12718 17
59.14690 5
59.16663 2
59.18635 5
59.20607 8
59.22579 9
59.24551 13
59.26523 20
59.28495 18
59.30468 24
59.32440 27
59.34412 28
59.36384 32
59.38356 26
59.40328 17
59.42300 20
59.44273 18
59.46245 18
59.48217 11
59.50189 5
59.52161 0
59.54133 1
59.56105 0
59.58078 7
59.60050 11
59.62022 11
59.63994 15
59.65966 15
59.67938 26
59.69910 27
59.71883 33
59.73854 33
59.75827 25
59.77799 21
59.79771 19
59.81743 19
59.83715 19
59.85687 11
59.87659 20
59.89632 14
59.91604 10
59.93576 12
59.95548 13
59.97520 10
59.99492 11
60.01464 12
60.03437 13
60.05409 12
60.07381 16
60.09353 20
60.11325 21
60.13297 16
60.15269 20
60.17242 14
60.19214 13
60.21186 16
60.23158 10
60.25130 8
60.27102 3
60.29074 0
60.31047 2
60.33018 9
60.34991 16
60.36963 26
60.38935 29
60.40907 25
60.42879 27
60.44852 19
60.46823 11
60.48796 5
60.50768 0
60.52740 5
60.54712 3
60.56684 4
60.58656 9
60.60628 5
60.62601 8
60.64573 14
60.66545 22
60.68517 26
60.70489 31
60.72461 37
60.74433 30
60.76406 28
60.78378 19
60.80350 10
60.82322 5
60.84294 8
60.86266 7
60.88238 6
60.90211 6
60.92183 1
60.94155 0
60.96127 0
60.98099 1
61.00071 13
61.02043 16
61.04016 15
61.05987 16
61.07960 6
61.09932 16
61.11904 16
61.13876 11
61.15848 16
61.17820 22
61.19792 22
61.21765 24
61.23737 22
61.25709 31
61.27681 27
61.29653 28
61.31625 28
61.33597 24
61.35570 19
61.37542 17
61.39514 10
61.41486 13
61.43458 4
61.45430 12
61.47403 9
61.49375 7
61.51347 10
61.53319 6
61.55291 3
61.57263 18
61.59235 21
61.61208 26
61.63180 25
61.65152 31
61.67124 24
61.69096 19
61.71068 23
61.73040 25
61.75013 15
61.76985 0
61.78957 1
61.80929 0
61.82901 0
61.84873 4
61.86845 10
61.88818 16
61.90789 14
61.92762 25
61.94734 31
61.96706 23
61.98678 14
62.00650 10
62.02623 9
62.04594 11
62.06567 7
62.08539 16
62.10511 9
62.12483 2
62.14455 1
62.16427 7
62.18399 13
62.20372 15
62.22344 18
62.24316 23
62.26288 20
62.28260 21
62.30232 21
62.32204 27
62.34177 26
62.36149 31
62.38121 37
62.40093 41
62.42065 47
62.44037 52
62.46009 53
62.47982 59
62.49954 63
62.51926 70
62.53898 67
62.55870 65
62.57842 64
62.59814 62
62.61787 71
62.63758 99
62.65731 113
62.67703 135
62.69675 151
62.71647 169
62.73619 195
62.75591 236
62.77563 284
62.79536 341
62.81508 372
62.83480 417
62.85452 437
62.87424 435
62.89396 414
62.91368 380
62.93341 330
62.95313 285
62.97285 241
62.99257 217
63.01229 179
63.03201 148
63.05173 115
63.07146 88
63.09118 75
63.11090 72
63.13062 61
63.15034 52
63.17006 40
63.18978 44
63.20951 46
63.22923 51
63.24895 59
63.26867 59
63.28839 49
63.30811 42
63.32783 31
63.34756 26
63.36727 21
63.38700 22
63.40672 21
63.42644 26
63.44616 32
63.46588 28
63.48560 26
63.50532 35
63.52505 34
63.54477 42
63.56449 45
63.58421 51
63.60393 42
63.62365 40
63.64337 51
63.66310 48
63.68282 33
63.70254 32
63.72226 14
63.74198 1
63.76170 0
63.78142 0
63.80115 0
63.82087 0
63.84059 0
63.86031 11
63.88003 11
63.89975 17
63.91947 18
63.93920 22
63.95892 20
63.97864 16
63.99836 17
64.01808 24
64.03780 17
64.05752 19
64.07724 19
64.09697 20
64.11669 16
64.13641 19
64.15613 22
64.17585 22
64.19558 15
64.21530 26
64.23502 28
64.25474 26
64.27446 30
64.29418 34
64.31390 25
64.33362 24
64.35334 23
64.37307 24
64.39279 17
64.41251 4
64.43223 2
64.45195 2
64.47168 4
64.49140 10
64.51112 14
64.53083 18
64.55056 15
64.57028 11
64.59000 19
64.60972 27
64.62944 30
64.64917 27
64.66889 21
64.68861 27
64.70833 23
64.72805 28
64.74778 29
64.76749 24
64.78721 19
64.80693 13
64.82666 11
64.84638 14
64.86610 15
64.88582 17
64.90554 8
64.92527 6
64.94499 17
64.96471 21
64.98443 25
65.00415 26
65.02387 33
65.04359 40
65.06331 38
65.08303 42
65.10276 47
65.12248 50
65.14220 48
65.16192 46
65.18164 51
65.20137 50
65.22109 36
65.24081 24
65.26052 16
65.28025 20
65.29997 17
65.31969 18
65.33941 18
65.35913 16
65.37886 13
65.39858 16
65.41830 27
65.43802 39
65.45774 36
65.47747 35
65.49718 23
65.51690 20
65.53662 11
65.55635 6
65.57607 5
65.59579 7
65.61551 15
65.63523 25
65.65496 28
65.67468 26
65.69440 22
65.71412 24
65.73384 24
65.75356 25
65.77328 22
65.79300 16
65.81272 12
65.83245 9
65.85217 19
65.87189 25
65.89161 23
65.91133 19
65.93106 6
65.95078 0
65.97049 0
65.99021 5
66.00994 14
66.02966 11
66.04938 6
66.06910 14
66.08882 12
66.10855 16
66.12827 13
66.14799 11
66.16771 12
66.18743 7
66.20716 6
66.22687 10
66.24659 7
66.26631 18
66.28604 25
66.30576 28
66.32548 27
66.34520 26
66.36492 24
66.38465 18
66.40437 14
66.42409 11
66.44381 10
66.46353 0
66.48325 0
66.50297 4
66.52269 7
66.54241 13
66.56214 16
66.58186 13
66.60158 13
66.62130 5
66.64102 5
66.66075 11
66.68047 10
66.70018 20
66.71991 32
66.73963 33
66.75935 31
66.77907 24
66.79879 17
66.81852 9
66.83824 4
66.85796 8
66.87768 12
66.89740 5
66.91713 3
66.93685 5
66.95656 5
66.97628 5
66.99601 15
67.01573 18
67.03545 21
67.05517 31
67.07489 35
67.09462 31
67.11434 21
67.13406 20
67.15378 13
67.17350 3
67.19322 0
67.21294 8
67.23266 11
67.25238 3
67.27211 0
67.29183 2
67.31155 1
67.33127 0
67.35099 0
67.37072 4
67.39044 11
67.41016 12
67.42987 18
67.4496  23
67.46932 28
67.48904 29
67.50876 29
67.52848 26
67.54821 28
67.56793 24
67.58765 13
67.60737 12
67.62709 9
67.64682 6
67.66654 0
67.68625 5
67.70597 4
67.7257  5
67.74542 4
67.76514 0
67.78486 0
67.80458 5
67.82431 0
67.84403 6
67.86375 17
67.88347 22
67.90319 21
67.92291 24
67.94263 29
67.96235 36
67.98207 27
68.00180 26
68.02152 30
68.04124 29
68.06096 19
68.08068 20
68.10041 23
68.12013 16
68.13985 8
68.15956 6
68.17929 6
68.19901 13
68.21873 7
68.23845 15
68.25817 27
68.27790 21
68.29762 22
68.31734 17
68.33706 19
68.35678 20
68.37651 16
68.39622 18
68.41594 16
68.43566 12
68.45539 13
68.47511 11
68.49483 7
68.51455 11
68.53427 14
68.55400 8
68.57372 0
68.59344 7
68.61316 9
68.63288 2
68.65260 1
68.67232 2
68.69204 2
68.71176 1
68.73149 4
68.75121 23
68.77093 25
68.79065 18
68.81037 15
68.83010 20
68.84982 8
68.86954 10
68.88925 8
68.90898 17
68.92870 6
68.94842 5
68.96814 1
68.98786 4
69.00759 4
69.02731 5
69.04703 9
69.06675 12
69.08647 12
69.10620 16
69.12591 19
69.14563 25
69.16535 24
69.18508 17
69.20480 12
69.22452 15
69.24424 16
69.26396 20
69.28369 13
69.30341 14
69.32313 12
69.34285 3
69.36257 3
69.38229 5
69.40201 13
69.42173 14
69.44146 23
69.46118 29
69.48090 33
69.50062 22
69.52034 9
69.54007 6
69.55979 9
69.57951 5
69.59923 7
69.61895 11
69.63867 7
69.65839 2
69.67811 8
69.69783 19
69.71756 29
69.73728 27
69.75700 28
69.77672 25
69.79644 16
69.81617 11
69.83589 19
69.85560 15
69.87532 14
69.89505 8
69.91477 6
69.93449 10
69.95421 10
69.97393 11
69.99366 18
70.01338 18
70.03310 20
70.05282 16
70.07254 15
70.09227 14
70.11198 15
70.13170 13
70.15142 15
70.17115 14
70.19087 14
70.21059 10
70.23031 11
70.25003 11
70.26976 18
70.28948 13
70.30920 14
70.32892 10
70.34864 6
70.36836 10
70.38808 16
70.40780 20
70.42752 21
70.44725 14
70.46697 23
70.48669 23
70.50641 22
70.52613 21
70.54586 14
70.56558 5
70.58529 1
70.60501 0
70.62474 12
70.64446 24
70.66418 28
70.68390 21
70.70362 15
70.72335 11
70.74307 6
70.76279 6
70.78251 7
70.80223 19
70.82195 27
70.84167 25
70.86139 28
70.88111 33
70.90084 24
70.92056 23
70.94028 26
70.96000 31
70.97972 32
70.99945 24
71.01917 16
71.03889 13
71.05861 7
71.07833 7
71.09805 20
71.11777 24
71.13749 24
71.15721 20
71.17694 13
71.19666 14
71.21638 17
71.23610 17
71.25582 18
71.27555 11
71.29527 19
71.31498 18
71.33470 22
71.35443 28
71.37415 34
71.39387 29
71.41359 16
71.43331 5
71.45304 15
71.47276 17
71.49248 15
71.51220 11
71.53192 22
71.55164 20
71.57136 18
71.59108 18
71.61080 25
71.63053 34
71.65025 28
71.66997 26
71.68969 29
71.70941 32
71.72914 31
71.74886 23
71.76858 24
71.78830 28
71.80802 25
71.82774 12
71.84746 6
71.86718 12
71.88690 11
71.90663 5
71.92635 6
71.94607 9
71.96579 8
71.98551 0
72.00524 3
72.02496 2
72.04467 13
72.0644  18
72.08412 19
72.10384 28
72.12356 33
72.14328 37
72.16301 35
72.18273 29
72.20245 37
72.22217 37
72.24189 30
72.26162 24
72.28133 17
72.30105 15
72.32077 5
72.3405  0
72.36022 5
72.37994 10
72.39966 8
72.41938 0
72.43911 0
72.45883 9
72.47855 11
72.49827 17
72.51799 28
72.53771 33
72.55743 34
72.57715 26
72.59687 29
72.6166  32
72.63632 36
72.65604 29
72.67576 24
72.69548 20
72.71521 19
72.73493 16
72.75465 19
72.77436 16
72.79409 17
72.81381 12
72.83353 8
72.85325 8
72.87297 9
72.8927  12
72.91242 22
72.93214 28
72.95186 32
72.97158 32
72.99131 28
73.01102 28
73.03074 21
73.05046 25
73.07019 27
73.08991 34
73.10963 35
73.12935 28
73.14907 14
73.1688  12
73.18852 2
73.20824 4
73.22796 1
73.24768 2
73.26740 12
73.28712 15
73.30684 8
73.32656 13
73.34629 16
73.36601 27
73.38573 31
73.40545 37
73.42517 37
73.44490 35
73.46462 31
73.48434 20
73.50405 19
73.52378 28
73.54350 31
73.56322 27
73.58294 19
73.60266 8
73.62239 4
73.64211 0
73.66183 2
73.68155 4
73.70127 10
73.72100 9
73.74071 8
73.76043 5
73.78015 11
73.79988 15
73.81960 20
73.83932 21
73.85904 25
73.87876 26
73.89849 25
73.91821 25
73.93793 19
73.95765 17
73.97737 22
73.99709 24
74.01681 28
74.03653 32
74.05625 27
74.07598 29
74.09570 22
74.11542 34
74.13514 42
74.15486 57
74.17459 66
74.19431 78
74.21403 75
74.23374 75
74.25347 70
74.27319 72
74.29291 67
74.31263 72
74.33235 69
74.35208 71
74.37180 59
74.39152 57
74.41124 59
74.43096 56
74.45069 51
74.47040 48
74.49012 52
74.50985 52
74.52957 43
74.54929 49
74.56901 54
74.58873 51
74.60845 40
74.62818 36
74.64790 31
74.66762 35
74.68734 29
74.70706 29
74.72678 23
74.74650 27
74.76622 22
74.78595 15
74.80567 14
74.82539 24
74.84511 22
74.86483 20
74.88456 9
74.90428 16
74.92400 15
74.94372 13
74.96344 19
74.98316 24
75.00288 23
75.02260 25
75.04232 19
75.06205 19
75.08177 24
75.10149 32
75.12121 35
75.14093 39
75.16066 39
75.18038 42
75.20009 38
75.21981 36
75.23954 38
75.25926 48
75.27898 50
75.29870 55
75.31842 57
75.33815 62
75.35787 66
75.37759 72
75.39731 81
75.41703 78
75.43675 61
75.45647 50
75.47619 46
75.49591 55
75.51564 75
75.53536 101
75.55508 139
75.57480 188
75.59452 236
75.61425 283
75.63397 329
75.65369 349
75.67340 343
75.69313 307
75.71285 267
75.73257 226
75.75229 185
75.77201 158
75.79174 140
75.81146 131
75.83118 128
75.85090 121
75.87062 120
75.89035 108
75.91007 110
75.92978 97
75.94950 88
75.96923 82
75.98895 83
76.00867 76
76.02839 79
76.04811 76
76.06784 83
76.08756 69
76.10728 68
76.12700 52
76.14672 53
76.16644 53
76.18616 65
76.20588 67
76.22560 76
76.24533 76
76.26505 78
76.28477 69
76.30449 80
76.32421 94
76.34394 112
76.36366 120
76.38338 125
76.40309 117
76.42282 107
76.44254 88
76.46226 75
76.48198 62
76.50170 53
76.52143 49
76.54115 38
76.56087 35
76.58059 33
76.60031 25
76.62004 21
76.63976 19
76.65947 18
76.67919 21
76.69892 16
76.71864 15
76.73836 12
76.75808 6
76.77780 13
76.79753 14
76.81725 18
76.83697 22
76.85669 34
76.87641 38
76.89613 37
76.91585 33
76.93557 37
76.95529 26
76.97502 18
76.99474 11
77.01446 12
77.03418 11
77.05390 17
77.07363 18
77.09335 20
77.11307 12
77.13279 3
77.15251 1
77.17223 0
77.19195 0
77.21167 6
77.2314  14
77.25112 25
77.27084 17
77.29056 13
77.31028 16
77.33000 11
77.34973 9
77.36945 10
77.38916 11
77.40889 21
77.42861 21
77.44833 24
77.46805 24
77.48777 22
77.5075  21
77.52722 11
77.54694 6
77.56666 12
77.58638 11
77.60611 11
77.62582 12
77.64554 13
77.66526 11
77.68499 4
77.70471 6
77.72443 6
77.74415 7
77.76387 14
77.7836  21
77.80332 29
77.82304 26
77.84276 23
77.86248 21
77.88220 24
77.90192 28
77.92164 35
77.94136 34
77.96109 30
77.98081 20
78.00053 12
78.02025 3
78.03997 4
78.0597  6
78.07942 5
78.09913 2
78.11885 0
78.13858 0
78.15830 0
78.17802 0
78.19774 0
78.21746 11
78.23719 17
78.25691 22
78.27663 24
78.29635 25
78.31607 18
78.3358  23
78.35551 26
78.37523 29
78.39495 33
78.41468 33
78.43440 29
78.45412 25
78.47384 14
78.49356 17
78.51329 21
78.53301 25
78.55273 33
78.57245 29
78.59217 20
78.61189 14
78.63161 6
78.65133 2
78.67105 5
78.69078 9
78.71050 12
78.73022 15
78.74994 15
78.76966 14
78.78939 16
78.80911 17
78.82882 18
78.84854 13
78.86827 13
78.88799 12
78.90771 15
78.92743 19
78.94715 25
78.96688 28
78.98660 32
79.00632 33
79.02604 31
79.04576 36
79.06549 36
79.08520 38
79.10492 50
79.12464 57
79.14437 62
79.16409 76
79.18381 85
79.20353 106
79.22325 116
79.24298 132
79.26270 161
79.28242 183
79.30214 199
79.32186 216
79.34158 212
79.36130 204
79.38102 199
79.40074 185
79.42047 179
79.44019 165
79.45991 154
79.47963 131
79.49935 104
79.51908 77
79.53880 71
79.55851 58
79.57823 67
79.59796 70
79.61768 65
79.63740 57
79.65712 51
79.67684 37
79.69657 31
79.71629 27
79.73601 38
79.75573 37
79.77545 30
79.79518 19
79.81489 10
79.83461 3
79.85434 2
79.87406 9
79.89378 14
79.91350 22
79.93322 25
79.95295 16
79.97267 14
79.99239 16
80.01211 18
80.03183 22
80.05155 28
80.07127 30
80.09099 26
80.11071 25
80.13044 22
80.15016 17
80.16988 16
80.18960 16
80.20932 21
80.22905 21
80.24877 27
80.26849 29
80.28820 24
80.30793 19
80.32765 9
80.34737 4
80.36709 0
80.38681 1
80.40654 10
80.42626 13
80.44598 12
80.46570 17
80.48542 11
80.50515 7
80.52486 9
80.54458 10
80.56430 28
80.58403 30
80.60375 32
80.62347 36
80.64319 24
80.66291 18
80.68264 11
80.70236 3
80.72208 7
80.74180 5
80.76152 11
80.78124 16
80.80096 4
80.82068 6
80.84040 5
80.86013 13
80.87985 20
80.89957 24
80.91929 30
80.93901 36
80.95874 30
80.97846 25
80.99818 18
81.01789 23
81.03762 25
81.05734 17
81.07706 13
81.09678 18
81.11650 13
81.13623 11
81.15595 9
81.17567 14
81.19539 14
81.21511 10
81.23484 8
81.25455 14
81.27427 10
81.29399 15
81.31372 18
81.33344 25
81.35316 18
81.37288 22
81.39260 18
81.41233 16
81.43205 15
81.45177 9
81.47149 5
81.49121 7
81.51093 7
81.53065 11
81.55037 10
81.57009 10
81.58982 12
81.60954 12
81.62926 15
81.64898 23
81.66870 24
81.68843 24
81.70815 19
81.72787 28
81.74758 29
81.76731 39
81.78703 37
81.80675 31
81.82647 23
81.84619 19
81.86592 13
81.88564 11
81.90536 8
81.92508 15
81.94480 10
81.96453 10
81.98424 8
82.00396 8
82.02368 2
82.04341 3
82.06313 6
82.08285 10
82.10257 13
82.12229 24
82.14202 19
82.16174 18
82.18146 13
82.20118 18
82.22090 15
82.24062 19
82.26034 22
82.28006 28
82.29978 22
82.31951 19
82.33923 19
82.35895 23
82.37867 25
82.39839 38
82.41812 44
82.43784 48
82.45756 36
82.47728 27
82.49700 18
82.51672 12
82.53644 12
82.55616 25
82.57589 27
82.59561 26
82.61533 24
82.63505 22
82.65477 14
82.6745  11
82.69422 11
82.71393 16
82.73365 13
82.75338 9
82.77310 11
82.79282 1
82.81254 0
82.83226 0
82.85199 0
82.87171 9
82.89143 21
82.91115 27
82.93087 28
82.95059 21
82.97031 23
82.99003 27
83.00975 28
83.02948 35
83.04920 39
83.06892 37
83.08864 28
83.10836 24
83.12809 16
83.14781 9
83.16753 7
83.18725 7
83.20697 4
83.22669 4
83.24641 0
83.26613 4
83.28585 1
83.30558 0
83.32530 0
83.34502 6
83.36474 7
83.38446 11
83.40419 17
83.42391 22
83.44362 22
83.46334 23
83.48307 35
83.50279 43
83.52251 48
83.54223 46
83.56195 45
83.58168 36
83.60140 35
83.62112 33
83.64084 30
83.66056 26
83.68028 21
83.70000 18
83.71972 13
83.73944 11
83.75917 13
83.77889 9
83.79861 9
83.81833 16
83.83805 20
83.85778 21
83.87750 20
83.89722 22
83.91694 19
83.93666 21
83.95638 23
83.97610 29
83.99582 32
84.01554 31
84.03527 34
84.05499 28
84.07471 25
84.09443 19
84.11415 16
84.13388 14
84.15360 14
84.17331 13
84.19303 6
84.21276 6
84.23248 6
84.25220 17
84.27192 21
84.29164 23
84.31137 31
84.33109 26
84.35081 21
84.37053 25
84.39025 28
84.40997 35
84.42969 29
84.44941 31
84.46913 31
84.48886 26
84.50858 22
84.52830 25
84.54802 29
84.56774 25
84.58747 23
84.60719 26
84.62691 21
84.64663 17
84.66635 11
84.68607 27
84.70579 32
84.72551 36
84.74523 38
84.76496 34
84.78468 26
84.80440 11
84.82412 4
84.84384 9
84.86357 16
84.88329 25
84.90300 30
84.92272 28
84.94245 22
84.96217 19
84.98189 13
85.00161 14
85.02133 20
85.04106 28
85.06078 36
85.08050 34
85.10022 30
85.11994 29
85.13966 22
85.15938 19
85.17910 14
85.19883 22
85.21855 24
85.23827 26
85.25799 28
85.27771 23
85.29744 22
85.31716 18
85.33688 17
85.35660 15
85.37632 14
85.39604 21
85.41576 21
85.43548 24
85.45520 27
85.47493 28
85.49465 31
85.51437 29
85.53409 28
85.55381 20
85.57354 10
85.59326 11
85.61298 3
85.63269 2
85.65242 2
85.67214 8
85.69186 13
85.71158 13
85.73130 12
85.75103 16
85.77075 15
85.79047 24
85.81019 25
85.82991 29
85.84964 29
85.86935 23
85.88907 14
85.90879 11
85.92852 15
85.94824 18
85.96796 17
85.98768 19
86.00740 26
86.02713 26
86.04685 28
86.06657 31
86.08629 37
86.10601 31
86.12573 27
86.14545 32
86.16517 32
86.18489 25
86.20462 22
86.22434 22
86.24406 22
86.26378 17
86.28350 19
86.30323 30
86.32295 25
86.34267 27
86.36238 29
86.38211 28
86.40183 25
86.42155 21
86.44127 20
86.46099 33
86.48072 36
86.50044 41
86.52016 38
86.53988 36
86.55960 33
86.57933 26
86.59904 23
86.61876 24
86.63848 17
86.65821 18
86.67793 18
86.69765 22
86.71737 23
86.73709 24
86.75682 28
86.77654 25
86.79626 26
86.81598 33
86.83570 36
86.85542 32
86.87514 25
86.89486 27
86.91458 21
86.93431 19
86.95403 31
86.97375 35
86.99347 38
87.01319 36
87.03292 34
87.05264 33
87.07236 20
87.09207 21
87.11180 30
87.13152 31
87.15124 39
87.17096 47
87.19068 50
87.21041 45
87.23013 34
87.24985 26
87.26957 26
87.28929 20
87.30902 33
87.32873 40
87.34845 41
87.36817 35
87.38790 23
87.40762 18
87.42734 20
87.44706 14
87.46678 26
87.48651 31
87.50623 31
87.52595 29
87.54567 26
87.56539 30
87.58511 27
87.60483 16
87.62455 14
87.64427 15
87.66400 15
87.68372 13
87.70344 22
87.72316 25
87.74288 22
87.76261 12
87.78233 11
87.80204 14
87.82177 13
87.84149 12
87.86121 20
87.88093 23
87.90065 23
87.92038 19
87.94010 21
87.95982 25
87.97954 22
87.99926 24
88.01899 27
88.03871 23
88.05842 21
88.07814 22
88.09787 25
88.11759 24
88.13731 18
88.15703 20
88.17675 19
88.19648 11
88.21620 9
88.23592 12
88.25564 19
88.27536 15
88.29508 13
88.31480 22
88.33452 22
88.35424 18
88.37397 16
88.39369 20
88.41341 24
88.43313 24
88.45285 13
88.47258 15
88.49230 18
88.51202 22
88.53173 22
88.55146 32
88.57118 40
88.59090 38
88.61062 23
88.63034 16
88.65007 14
88.66979 11
88.68951 3
88.70923 4
88.72895 17
88.74868 18
88.76840 20
88.78811 16
88.80783 14
88.82756 10
88.84728 8
88.86700 3
88.88672 9
88.90644 13
88.92617 12
88.94589 11
88.96561 14
88.98533 20
89.00505 20
89.02477 12
89.04449 4
89.06421 4
89.08393 4
89.10366 12
89.12338 19
89.14310 29
89.16282 29
89.18254 26
89.20227 18
89.22199 21
89.24171 27
89.26142 26
89.28115 28
89.30087 31
89.32059 27
89.34031 25
89.36003 18
89.37976 10
89.39948 5
89.41920 0
89.43892 6
89.45864 11
89.47837 20
89.49809 23
89.51780 24
89.53752 23
89.55725 29
89.57697 32
89.59669 30
89.61641 28
89.63613 30
89.65586 29
89.67558 34
89.69530 43
89.71502 48
89.73474 51
89.75446 43
89.77418 39
89.79390 36
89.81362 31
89.83335 32
89.85307 34
89.87279 35
89.89251 46
89.91223 49
89.93196 52
89.95168 52
89.97140 48
89.99111 45
