?
20.0     5
20.01972 5
20.03944 5
20.05916 5
20.07888 18
20.09860 31
20.11832 36
20.13805 39
20.15777 36
20.17749 36
20.19721 24
20.21693 17
20.23665 12
20.25637 8
20.27609 12
20.29582 22
20.31554 30
20.33526 35
20.35498 27
20.37470 18
20.39442 17
20.41414 18
20.43387 26
20.45359 27
20.47331 22
20.49303 19
20.51275 13
20.53247 18
20.55219 22
20.57192 31
20.59164 31
20.61136 26
20.63108 19
20.65080 14
20.67052 16
20.69024 17
20.70996 15
20.72969 25
20.74941 23
20.76913 23
20.78885 22
20.80857 25
20.82829 37
20.84801 41
20.86774 43
20.88746 36
20.90718 26
20.92690 22
20.94662 19
20.96634 19
20.98606 22
21.00578 13
21.02551 14
21.04523 15
21.06495 20
21.08467 23
21.10439 29
21.12411 31
21.14383 29
21.16356 15
21.18328 18
21.20300 25
21.22272 24
21.24244 22
21.26216 21
21.28188 19
21.30161 23
21.32133 20
21.34105 21
21.36077 20
21.38049 18
21.40021 21
21.41993 16
21.43965 17
21.45938 21
21.47910 22
21.49882 24
21.51854 17
21.53826 17
21.55798 16
21.57770 15
21.59743 15
21.61715 11
21.63687 23
21.65659 30
21.67631 28
21.69603 27
21.71575 22
21.73547 29
21.75520 28
21.77492 26
21.79464 25
21.81436 29
21.83408 21
21.85380 19
21.87352 18
21.89325 35
21.91297 35
21.93269 34
21.95241 23
21.97213 28
21.99185 17
22.01158 24
22.03130 28
22.05102 34
22.07074 29
22.09046 21
22.11018 12
22.12990 9
22.14963 0
22.16935 7
22.18907 15
22.20879 24
22.22851 30
22.24823 26
22.26795 25
22.28767 21
22.3074  20
22.32712 26
22.34684 36
22.36656 38
22.38628 37
22.40600 35
22.42572 30
22.44545 23
22.46517 15
22.48489 15
22.50461 25
22.52433 25
22.54405 26
22.56377 20
22.58349 24
22.60322 31
22.62294 24
22.64266 30
22.66238 36
22.68210 36
22.70182 32
22.72154 17
22.74127 17
22.76099 19
22.78071 18
22.80043 18
22.82015 16
22.83987 17
22.85959 16
22.87932 13
22.89904 14
22.91876 12
22.93848 23
22.95820 26
22.97792 30
22.99764 27
23.01736 23
23.03709 15
23.05681 14
23.07653 7
23.09625 13
23.11597 18
23.13569 19
23.15541 22
23.17514 19
23.19486 16
23.21458 10
23.23430 14
23.25402 26
23.27374 42
23.29346 45
23.31318 50
23.33291 42
23.35263 28
23.37235 12
23.39207 12
23.41179 15
23.43151 22
23.45123 27
23.47096 38
23.49068 38
23.51040 28
23.53012 22
23.54984 11
23.56956 14
23.58928 18
23.60900 21
23.62873 21
23.64845 22
23.66817 22
23.68789 18
23.70761 12
23.72733 16
23.74705 13
23.76678 11
23.78650 19
23.80622 29
23.82594 33
23.84566 37
23.86538 36
23.88510 28
23.90483 16
23.92455 20
23.94427 31
23.96399 33
23.98371 27
24.00343 27
24.02315 27
24.04287 26
24.06260 17
24.08232 19
24.10204 23
24.12176 32
24.14148 45
24.16120 50
24.18092 57
24.20065 63
24.22037 56
24.24009 62
24.25981 76
24.27953 97
24.29925 122
24.31897 135
24.33869 138
24.35842 130
24.37814 114
24.39786 123
24.41758 141
24.43730 143
24.45702 139
24.47674 133
24.49647 118
24.51619 93
24.53591 74
24.55563 63
24.57535 60
24.59507 52
24.61479 59
24.63452 67
24.65424 71
24.67396 63
24.69368 53
24.71340 28
24.73312 19
24.75285 18
24.77257 27
24.79229 28
24.81201 24
24.83173 20
24.85145 27
24.87117 32
24.89089 42
24.91062 41
24.93034 34
24.95006 20
24.96978 2
24.98950 0
25.00922 4
25.02894 18
25.04867 28
25.06839 31
25.08811 36
25.10783 31
25.12755 21
25.14727 12
25.16699 14
25.18671 27
25.20644 35
25.22616 36
25.24588 33
25.26560 32
25.28532 27
25.30504 16
25.32476 8
25.34449 13
25.36421 14
25.38393 26
25.40365 29
25.42337 36
25.44309 29
25.46281 33
25.48254 23
25.50226 27
25.52198 28
25.54170 36
25.56142 30
25.58114 17
25.60086 3
25.62058 5
25.64031 0
25.66003 0
25.67975 10
25.69947 16
25.71919 17
25.73891 20
25.75863 22
25.77836 22
25.79808 16
25.81780 2
25.83752 11
25.85724 9
25.87696 8
25.89668 12
25.91640 12
25.93613 12
25.95585 10
25.97557 7
25.99529 7
26.01501 11
26.03473 15
26.05445 19
26.07418 20
26.09390 18
26.11362 18
26.13334 15
26.15306 12
26.17278 12
26.19250 16
26.21223 16
26.23195 18
26.25167 18
26.27139 16
26.29111 18
26.31083 22
26.33055 18
26.35027 20
26.37000 15
26.38972 13
26.40944 11
26.42916 2
26.44888 1
26.46860 3
26.48832 8
26.50805 12
26.52777 14
26.54749 9
26.56721 6
26.58693 9
26.60665 22
26.62637 41
26.64609 55
26.66582 58
26.68554 48
26.70526 28
26.72498 13
26.74470 12
26.76442 18
26.78414 18
26.80387 21
26.82359 21
26.84331 13
26.86303 14
26.88275 18
26.90247 26
26.92219 27
26.94192 21
26.96164 23
26.98136 18
27.00108 13
27.02080 14
27.04052 11
27.06024 9
27.07996 5
27.09969 0
27.11941 2
27.13913 2
27.15885 8
27.17857 9
27.19829 11
27.21801 7
27.23774 8
27.25746 11
27.27718 15
27.29690 16
27.31662 18
27.33634 12
27.35607 10
27.37579 5
27.39551 6
27.41523 14
27.43495 16
27.45467 17
27.47439 13
27.49411 8
27.51384 3
27.53356 2
27.55328 9
27.57300 18
27.59272 20
27.61244 22
27.63216 16
27.65189 17
27.67161 11
27.69133 9
27.71105 16
27.73077 15
27.75049 13
27.77021 11
27.78994 3
27.80966 5
27.82938 9
27.84910 11
27.86882 13
27.88854 14
27.90826 14
27.92798 11
27.94771 14
27.96743 15
27.98715 22
28.00687 25
28.02659 19
28.04631 19
28.06603 15
28.08576 9
28.10548 8
28.12520 5
28.14492 6
28.16464 12
28.18436 13
28.20408 13
28.22380 19
28.24353 20
28.26325 17
28.28297 15
28.30269 10
28.32241 13
28.34213 9
28.36185 3
28.38158 5
28.4013  8
28.42102 8
28.44074 6
28.46046 5
28.48018 5
28.49990 5
28.51963 3
28.53935 0
28.55907 5
28.57879 3
28.59851 6
28.61823 6
28.63795 20
28.65767 37
28.67740 44
28.69712 43
28.71684 37
28.73656 22
28.75628 9
28.77600 0
28.79572 2
28.81545 8
28.83517 13
28.85489 15
28.87461 12
28.89433 14
28.91405 10
28.93377 3
28.95349 11
28.97322 16
28.99294 22
29.01266 22
29.03238 15
29.05210 17
29.07182 9
29.09154 7
29.11127 7
29.13099 11
29.15071 11
29.17043 9
29.19015 17
29.20987 24
29.22959 23
29.24931 24
29.26904 18
29.28876 8
29.30848 3
29.32820 1
29.34792 9
29.36764 10
29.38736 9
29.40709 6
29.42681 0
29.44653 0
29.46625 4
29.48597 10
29.50569 12
29.52541 12
29.54514 18
29.56486 20
29.58458 18
29.60430 19
29.62402 12
29.64374 11
29.66346 0
29.68318 5
29.70291 15
29.72263 19
29.74235 22
29.76207 27
29.78179 24
29.80151 20
29.82123 8
29.84096 11
29.86068 7
29.88040 2
29.90012 6
29.91984 12
29.93956 19
29.95929 23
29.97901 21
29.99873 25
30.01845 20
30.03817 28
30.05789 25
30.07761 34
30.09734 43
30.11706 37
30.13678 32
30.15650 31
30.17622 25
30.19594 34
30.21566 37
30.23538 51
30.25511 53
30.27483 44
30.29455 36
30.31427 24
30.33399 14
30.35371 10
30.37343 15
30.39316 16
30.41288 10
30.43260 11
30.45232 17
30.47204 21
30.49176 22
30.51148 27
30.53120 27
30.55093 24
30.57065 13
30.59037 9
30.61009 9
30.62981 8
30.64953 16
30.66925 23
30.68898 25
30.7087  25
30.72842 21
30.74814 14
30.76786 5
30.78758 0
30.80730 5
30.82702 10
30.84675 11
30.86647 13
30.88619 19
30.90591 16
30.92563 17
30.94535 17
30.96507 14
30.9848  21
31.00452 19
31.02424 25
31.04396 28
31.06368 25
31.08340 24
31.10312 19
31.12285 11
31.14257 6
31.16229 11
31.18201 20
31.20173 21
31.22145 26
31.24117 28
31.26089 27
31.28062 19
31.30034 8
31.32006 15
31.33978 14
31.35950 16
31.37922 22
31.39894 23
31.41867 19
31.43839 14
31.45811 9
31.47783 4
31.49755 0
31.51727 1
31.53699 2
31.55671 0
31.57644 5
31.59616 9
31.61588 15
31.63560 18
31.65532 16
31.67504 11
31.69476 8
31.71449 0
31.73421 8
31.75393 10
31.77365 19
31.79337 29
31.81309 31
31.83281 27
31.85254 24
31.87226 21
31.89198 29
31.91170 27
31.93142 26
31.95114 26
31.97086 17
31.99058 8
32.01031 2
32.03003 4
32.04975 3
32.06947 10
32.08919 11
32.10891 13
32.12863 21
32.14836 20
32.16808 24
32.18780 30
32.20752 21
32.22724 28
32.24696 36
32.26668 49
32.28641 54
32.30613 50
32.32585 47
32.34557 32
32.36529 10
32.38501 1
32.40473 3
32.42446 13
32.44418 20
32.46390 30
32.48362 37
32.50334 37
32.52306 28
32.54278 17
32.56250 16
32.58223 18
32.60195 15
32.62167 18
32.64139 19
32.66111 25
32.68083 20
32.70055 24
32.72028 27
32.74000 28
32.75972 25
32.77944 23
32.79916 19
32.81888 24
32.83860 20
32.85833 21
32.87805 19
32.89777 20
32.91749 17
32.93721 11
32.95693 11
32.97665 15
32.99638 13
33.01610 20
33.03582 28
33.05554 29
33.07526 33
33.09498 33
33.11470 33
33.13443 42
33.15415 39
33.17387 47
33.19359 48
33.21331 48
33.23303 63
33.25275 60
33.27248 63
33.29219 85
33.31192 94
33.33164 120
33.35136 135
33.37108 149
33.39080 173
33.41052 157
33.43024 156
33.44997 155
33.46969 134
33.48941 132
33.50913 122
33.52885 119
33.54857 120
33.56829 105
33.58802 102
33.60774 88
33.62746 68
33.64718 64
33.66690 58
33.68662 55
33.70634 58
33.72607 63
33.74579 68
33.76551 68
33.78523 62
33.80495 56
33.82467 42
33.84439 31
33.86412 27
33.88384 26
33.90356 35
33.92328 43
33.94300 40
33.96272 38
33.98244 28
34.00217 25
34.02188 17
34.04161 12
34.06133 12
34.08105 14
34.10077 10
34.12049 10
34.14021 10
34.15993 7
34.17966 12
34.19938 23
34.21910 32
34.23882 48
34.25854 51
34.27826 51
34.29798 40
34.31771 23
34.33743 25
34.35715 27
34.37687 20
34.39659 34
34.41631 32
34.43603 31
34.45576 30
34.47548 27
34.49520 30
34.51492 33
34.53464 26
34.55436 34
34.57408 33
34.59381 37
34.61353 43
34.63325 35
34.65297 38
34.67269 43
34.69241 41
34.71213 40
34.73186 37
34.75157 29
34.77130 20
34.79102 12
34.81074 23
34.83046 35
34.85018 39
34.86990 43
34.88962 45
34.90935 34
34.92907 23
34.94879 26
34.96851 39
34.98823 45
35.00795 47
35.02767 54
35.04740 54
35.06712 45
35.08684 37
35.10656 38
35.12628 31
35.14600 27
35.16573 24
35.18545 34
35.20517 40
35.22489 42
35.24461 49
35.26433 57
35.28405 48
35.30378 48
35.32350 43
35.34322 41
35.36294 36
35.38266 27
35.40238 32
35.42210 49
35.44183 55
35.46155 72
35.48127 88
35.50099 89
35.52071 89
35.54043 82
35.56015 70
35.57988 65
35.59959 61
35.61932 67
35.63904 73
35.65876 81
35.67848 91
35.69820 99
35.71792 97
35.73764 94
35.75737 91
35.77709 89
35.79681 96
35.81653 100
35.83625 98
35.85597 97
35.87569 97
35.89542 85
35.91514 84
35.93486 87
35.95458 95
35.97430 93
35.99402 96
36.01374 100
36.03347 94
36.05319 77
36.07291 68
36.09263 61
36.11235 50
36.13207 34
36.15179 40
36.17152 48
36.19124 42
36.21096 43
36.23068 55
36.25040 67
36.27012 66
36.28984 53
36.30957 48
36.32928 33
36.34901 19
36.36873 19
36.38845 25
36.40817 33
36.42789 40
36.44761 41
36.46733 30
36.48706 25
36.50678 18
36.52650 18
36.54622 24
36.56594 34
36.58566 41
36.60538 51
36.62511 48
36.64483 44
36.66455 32
36.68427 29
36.70399 30
36.72371 25
36.74343 28
36.76316 45
36.78288 46
36.80260 39
36.82232 37
36.84204 31
36.86176 17
36.88148 13
36.90121 13
36.92092 24
36.94065 22
36.96037 23
36.98009 40
36.99981 49
37.01953 45
37.03926 45
37.05897 32
37.07870 22
37.09842 13
37.11814 14
37.13786 34
37.15758 66
37.17730 87
37.19702 92
37.21675 84
37.23647 63
37.25619 45
37.27591 36
37.29563 34
37.31535 48
37.33507 53
37.35480 57
37.37452 53
37.39424 40
37.41396 36
37.43368 34
37.45340 35
37.47312 28
37.49285 28
37.51257 25
37.53229 28
37.55201 28
37.57173 28
37.59145 22
37.61117 25
37.63090 15
37.65062 13
37.67034 11
37.69006 25
37.70978 35
37.72950 53
37.74922 66
37.76894 72
37.78867 61
37.80839 47
37.82811 31
37.84783 19
37.86755 8
37.88728 12
37.90699 21
37.92672 26
37.94644 30
37.96616 43
37.98588 47
38.00560 45
38.02532 39
38.04504 35
38.06477 34
38.08449 34
38.10421 34
38.12393 29
38.14365 26
38.16337 24
38.18309 26
38.20282 30
38.22254 34
38.24226 44
38.26198 44
38.28170 32
38.30142 25
38.32114 25
38.34087 14
38.36059 19
38.38031 26
38.40003 30
38.41975 26
38.43947 25
38.45919 20
38.47892 23
38.49863 17
38.51836 31
38.53808 42
38.55780 43
38.57752 41
38.59724 37
38.61697 29
38.63668 29
38.65641 34
38.67613 38
38.69585 36
38.71557 35
38.73529 33
38.75501 17
38.77473 12
38.79446 14
38.81418 15
38.83390 13
38.85362 13
38.87334 24
38.89306 24
38.91278 22
38.93251 25
38.95223 27
38.97195 24
38.99167 33
39.01139 44
39.03111 51
39.05083 48
39.07056 45
39.09028 36
39.11000 23
39.12972 10
39.14944 13
39.16916 13
39.18888 17
39.20861 20
39.22832 25
39.24805 34
39.26777 37
39.28749 37
39.30721 43
39.32693 38
39.34665 29
39.36637 16
39.38610 19
39.40582 31
39.42554 37
39.44526 36
39.46498 41
39.48470 35
39.50442 26
39.52415 27
39.54387 34
39.56359 45
39.58331 49
39.60303 47
39.62275 49
39.64247 42
39.66220 35
39.68192 33
39.70164 27
39.72136 25
39.74108 24
39.76080 23
39.78052 22
39.80025 19
39.81997 12
39.83969 20
39.85941 22
39.87913 18
39.89885 25
39.91857 29
39.93830 33
39.95801 32
39.97774 32
39.99746 30
40.01718 17
40.03690 16
40.05662 22
40.07634 42
40.09606 56
40.11579 58
40.13551 54
40.15523 33
40.17495 16
40.19467 9
40.21439 0
40.23411 8
40.25384 18
40.27356 32
40.29328 33
40.31300 39
40.33272 44
40.35244 38
40.37216 20
40.39189 16
40.41161 12
40.43133 9
40.45105 11
40.47077 25
40.49049 27
40.51022 31
40.52994 28
40.54966 22
40.56938 19
40.58910 17
40.60882 26
40.62854 21
40.64827 26
40.66799 39
40.68771 41
40.70743 35
40.72715 33
40.74687 29
40.76659 19
40.78632 7
40.80603 17
40.82576 34
40.84548 38
40.86520 47
40.88492 42
40.90464 44
40.92436 36
40.94408 28
40.96381 27
40.98353 32
41.00325 18
41.02297 29
41.04269 31
41.06241 40
41.08213 40
41.10186 41
41.12158 43
41.14130 40
41.16102 34
41.18074 53
41.20046 67
41.22018 73
41.23991 77
41.25963 72
41.27935 52
41.29907 30
41.31879 10
41.33851 14
41.35823 15
41.37796 30
41.39768 50
41.4174  63
41.43712 62
41.45684 68
41.47656 54
41.49628 48
41.51601 32
41.53572 37
41.55545 36
41.57517 36
41.59489 30
41.61461 31
41.63433 20
41.65405 9
41.67377 11
41.69350 17
41.71322 23
41.73294 29
41.75266 36
41.77238 33
41.79210 41
41.81182 48
41.83155 56
41.85127 49
41.87099 42
41.89071 28
41.91043 22
41.93015 9
41.94987 23
41.96960 40
41.98932 52
42.00904 54
42.02876 55
42.04848 50
42.06820 42
42.08792 31
42.10765 21
42.12737 21
42.14709 22
42.16681 22
42.18653 25
42.20625 35
42.22597 39
42.24570 47
42.26541 49
42.28514 46
42.30486 45
42.32458 34
42.34430 28
42.36402 24
42.38374 12
42.40346 17
42.42319 17
42.44291 12
42.46263 13
42.48235 13
42.50207 25
42.52179 22
42.54151 28
42.56124 33
42.58096 41
42.60068 48
42.62040 54
42.64012 58
42.65984 64
42.67956 55
42.69929 49
42.71901 27
42.73873 21
42.75845 18
42.77817 28
42.79789 46
42.81761 68
42.83734 80
42.85706 88
42.87678 71
42.89650 62
42.91622 44
42.93594 49
42.95566 55
42.97539 54
42.99511 66
43.01483 71
43.03455 70
43.05427 66
43.07399 65
43.09371 66
43.11343 56
43.13316 61
43.15288 78
43.17260 79
43.19232 96
43.21204 104
43.23176 105
43.25148 96
43.27121 83
43.29093 93
43.31065 97
43.33037 93
43.35009 103
43.36981 113
43.38953 99
43.40926 102
43.42898 90
43.44870 81
43.46842 73
43.48814 61
43.50786 60
43.52758 59
43.54731 53
43.56703 59
43.58675 64
43.60647 64
43.62619 69
43.64591 82
43.66563 86
43.68536 90
43.70508 80
43.7248  79
43.74452 92
43.76424 89
43.78396 99
43.80368 124
43.82341 142
43.84312 171
43.86285 193
43.88257 242
43.90229 298
43.92201 343
43.94173 414
43.96145 531
43.98117 726
44.0009  1081
44.02062 1631
44.04034 2564
44.06006 4273
44.07978 6538
44.09950 8691
44.11922 10380
44.13895 11443
44.15867 11753
44.17839 10972
44.19811 9325
44.21783 7475
44.23755 5542
44.25727 3599
44.277   1990
44.29672 1027
44.31644 659
44.33616 501
44.35588 414
44.37560 335
44.39532 258
44.41505 246
44.43477 218
44.45449 212
44.47421 184
44.49393 169
44.51365 148
44.53337 110
44.55310 85
44.57281 68
44.59254 57
44.61226 72
44.63198 75
44.65170 92
44.67142 85
44.69114 92
44.71086 82
44.73059 70
44.75031 75
44.77003 80
44.78975 80
44.80947 78
44.82919 75
44.84891 81
44.86864 58
44.88836 54
44.90808 55
44.92780 53
44.94752 54
44.96724 39
44.98696 48
45.00669 52
45.02641 48
45.04613 54
45.06585 53
45.08557 54
45.10529 52
45.12501 44
45.14474 47
45.16446 50
45.18418 61
45.20390 63
45.22362 58
45.24334 61
45.26306 68
45.28279 70
45.30250 57
45.32223 50
45.34195 51
45.36167 43
45.38139 37
45.40111 33
45.42083 43
45.44055 49
45.46028 51
45.48000 56
45.49972 65
45.51944 68
45.53916 56
45.55888 45
45.57860 30
45.59833 25
45.61805 24
45.63777 23
45.65749 27
45.67721 42
45.69693 43
45.71666 39
45.73638 29
45.75610 36
45.77582 38
45.79554 29
45.81526 27
45.83498 31
45.85471 32
45.87443 40
45.89415 39
45.91387 57
45.93359 60
45.95331 52
45.97303 39
45.99276 28
46.01248 30
46.0322  35
46.05192 28
46.07164 36
46.09136 33
46.11108 33
46.13081 33
46.15052 33
46.17025 39
46.18997 43
46.20969 45
46.22941 39
46.24913 31
46.26885 23
46.28857 30
46.3083  24
46.32802 27
46.34774 36
46.36746 40
46.38718 42
46.40690 35
46.42662 33
46.44635 40
46.46607 39
46.48579 32
46.50551 30
46.52523 32
46.54495 31
46.56467 21
46.5844  19
46.60412 15
46.62384 16
46.64356 7
46.66328 12
46.68300 22
46.70272 28
46.72245 26
46.74217 29
46.76189 33
46.78161 38
46.80133 30
46.82105 34
46.84077 41
46.8605  43
46.88021 33
46.89994 29
46.91966 35
46.93938 37
46.95910 33
46.97882 34
46.99854 43
47.01826 37
47.03799 33
47.05771 29
47.07743 25
47.09715 27
47.11687 24
47.13659 24
47.15631 26
47.17604 14
47.19576 20
47.21548 27
47.23520 28
47.25492 43
47.27464 54
47.29436 61
47.31409 52
47.33381 37
47.35353 27
47.37325 16
47.39297 2
47.41269 0
47.43241 5
47.45214 10
47.47186 16
47.49158 23
47.51130 26
47.53102 33
47.55074 44
47.57046 43
47.59019 60
47.60990 61
47.62963 61
47.64935 54
47.66907 42
47.68879 33
47.70851 32
47.72823 24
47.74795 35
47.76768 33
47.78740 32
47.80712 31
47.82684 27
47.84656 25
47.86628 21
47.88600 22
47.90573 31
47.92545 30
47.94517 26
47.96489 17
47.98461 15
48.00433 14
48.02405 10
48.04378 16
48.06350 15
48.08322 19
48.10294 25
48.12266 26
48.14238 32
48.16210 40
48.18183 40
48.20155 40
48.22127 27
48.24099 28
48.26071 23
48.28043 20
48.30015 14
48.31988 18
48.3396  13
48.35932 7
48.37904 16
48.39876 25
48.41848 29
48.43821 29
48.45792 21
48.47765 24
48.49737 22
48.51709 11
48.53681 22
48.55653 32
48.57625 42
48.59597 41
48.6157  36
48.63542 33
48.65514 26
48.67486 10
48.69458 5
48.71430 10
48.73402 16
48.75375 21
48.77347 28
48.79319 33
48.81291 41
48.83263 40
48.85235 35
48.87207 28
48.8918  19
48.91152 17
48.93124 14
48.95096 11
48.97068 11
48.99040 10
49.01012 8
49.02985 16
49.04956 15
49.06929 28
49.08901 29
49.10873 29
49.12845 27
49.14817 22
49.1679  20
49.18761 21
49.20734 12
49.22706 15
49.24678 13
49.26650 14
49.28622 26
49.30594 30
49.32566 36
49.34539 34
49.36511 25
49.38483 21
49.40455 8
49.42427 5
49.44399 9
49.46371 16
49.48344 22
49.50316 38
49.52288 44
49.54260 45
49.56232 43
49.58204 46
49.60176 31
49.62149 30
49.64121 20
49.66093 24
49.68065 18
49.70037 16
49.72009 28
49.73981 36
49.75954 40
49.77925 46
49.79898 42
49.81870 37
49.83842 28
49.85814 24
49.87786 27
49.89759 27
49.91730 43
49.93703 54
49.95675 54
49.97647 50
49.99619 55
50.01591 62
50.03563 59
50.05535 47
50.07508 44
50.09480 34
50.11452 14
50.13424 2
50.15396 11
50.17368 21
50.19340 36
50.21313 49
50.23285 57
50.25257 52
50.27229 50
50.29201 52
50.31173 44
50.33145 38
50.35118 45
50.37090 50
50.39062 52
50.41034 45
50.43006 44
50.44978 43
50.46950 41
50.48923 35
50.50894 38
50.52867 33
50.54839 38
50.56811 33
50.58783 20
50.60755 15
50.62727 15
50.64699 13
50.66672 13
50.68644 17
50.70616 29
50.72588 35
50.74560 41
50.76532 46
50.78504 47
50.80477 53
50.82449 45
50.84421 47
50.86393 45
50.88365 47
50.90337 43
50.9231  47
50.94282 38
50.96254 41
50.98226 37
51.00198 53
51.02170 49
51.04142 67
51.06115 70
51.08087 88
51.10059 87
51.12031 94
51.14003 106
51.15975 129
51.17947 132
51.1992  183
51.21892 235
51.23864 310
51.25836 410
51.27808 540
51.29780 761
51.31752 1124
51.33725 1589
51.35696 2066
51.37669 2467
51.39641 2740
51.41613 2922
51.43585 3053
51.45557 3104
51.47529 3051
51.49501 2809
51.51474 2348
51.53446 1784
51.55418 1184
51.57390 711
51.59362 439
51.61334 290
51.63306 231
51.65279 198
51.67251 165
51.69223 152
51.71195 139
51.73167 128
51.75139 105
51.77111 75
51.79084 57
51.81056 63
51.83028 53
51.85000 51
51.86972 50
51.88944 57
51.90916 67
51.92889 61
51.94861 41
51.96833 45
51.98805 35
52.00777 33
52.02749 14
52.04721 15
52.06694 23
52.08665 24
52.10638 21
52.12610 35
52.14582 41
52.16554 49
52.18526 42
52.20498 42
52.22470 39
52.24443 41
52.26415 36
52.28387 36
52.30359 35
52.32331 27
52.34303 22
52.36275 23
52.38248 20
52.40220 29
52.42192 37
52.44164 40
52.46136 48
52.48108 43
52.50080 39
52.52053 33
52.54025 15
52.55997 14
52.57969 23
52.59941 28
52.61913 35
52.63885 43
52.65858 39
52.67830 30
52.69802 25
52.71774 22
52.73746 25
52.75718 26
52.77690 26
52.79663 28
52.81634 28
52.83607 24
52.85579 29
52.87551 22
52.89523 18
52.91495 19
52.93467 25
52.95439 21
52.97412 23
52.99384 25
53.01356 36
53.03328 35
53.05300 35
53.07272 33
53.09244 39
53.11217 41
53.13189 39
53.15161 35
53.17133 38
53.19105 30
53.21077 23
53.23049 13
53.25022 8
53.26994 17
53.28966 24
53.30938 26
53.32910 35
53.34882 37
53.36854 34
53.38827 30
53.40799 17
53.42771 16
53.44743 14
53.46715 11
53.48687 16
53.50659 14
53.52632 13
53.54604 23
53.56576 24
53.58548 24
53.60520 23
53.62492 22
53.64465 26
53.66436 26
53.68409 27
53.70381 33
53.72353 32
53.74325 21
53.76297 21
53.78269 20
53.80241 17
53.82214 19
53.84186 21
53.86158 23
53.88130 26
53.90102 25
53.92074 29
53.94046 28
53.96019 21
53.97991 19
53.99963 15
54.01935 8
54.03907 17
54.05879 25
54.07851 29
54.09824 38
54.11796 42
54.13768 58
54.15740 57
54.17712 52
54.19684 49
54.21656 38
54.23629 21
54.25601 15
54.27573 7
54.29545 15
54.31517 15
54.33489 30
54.35461 32
54.37434 50
54.39405 51
54.41378 67
54.43350 68
54.45322 71
54.47294 72
54.49266 72
54.51238 62
54.53210 75
54.55183 59
54.57155 57
54.59127 52
54.61099 49
54.63071 47
54.65043 52
54.67015 53
54.68988 69
54.70960 67
54.72932 68
54.74904 59
54.76876 51
54.78848 50
54.80820 53
54.82793 41
54.84765 49
54.86737 47
54.88709 54
54.90681 49
54.92653 59
54.94625 68
54.96598 69
54.98570 57
55.00542 48
55.02514 33
55.04486 24
55.06458 13
55.08430 11
55.10403 10
55.12374 9
55.14347 9
55.16319 22
55.18291 30
55.20263 37
55.22235 41
55.24207 43
55.26179 34
55.28152 27
55.30124 18
55.32096 19
55.34068 14
55.36040 17
55.38012 20
55.39984 21
55.41957 30
55.43929 32
55.45901 29
55.47873 28
55.49845 21
55.51817 22
55.53789 25
55.55762 19
55.57734 23
55.59706 14
55.61678 16
55.63650 16
55.65622 10
55.67594 15
55.69567 19
55.71539 18
55.73511 18
55.75483 12
55.77455 16
55.79427 14
55.81399 19
55.83372 20
55.85343 27
55.87316 34
55.89288 36
55.91260 41
55.93232 42
55.95204 34
55.97176 35
55.99148 26
56.01121 18
56.03093 14
56.05065 8
56.07037 10
56.09009 8
56.10981 9
56.12953 16
56.14926 18
56.16898 26
56.18870 37
56.20842 37
56.22814 32
56.24786 28
56.26759 26
56.28731 27
56.30703 32
56.32675 35
56.34647 33
56.36619 34
56.38591 35
56.40564 34
56.42536 27
56.44508 22
56.46480 23
56.48452 22
56.50424 22
56.52396 25
56.54369 25
56.56341 23
56.58313 17
56.60285 13
56.62257 12
56.64229 11
56.66201 17
56.68174 20
56.70145 22
56.72118 31
56.74090 33
56.76062 26
56.78034 17
56.80006 13
56.81978 22
56.83950 26
56.85923 28
56.87895 30
56.89867 29
56.91839 18
56.93811 19
56.95783 25
56.97755 24
56.99728 21
57.01700 15
57.03672 10
57.05644 10
57.07616 8
57.09588 11
57.11560 19
57.13533 22
57.15505 20
57.17477 16
57.19449 12
57.21421 13
57.23393 12
57.25365 4
57.27338 18
57.29310 22
57.31282 28
57.33254 29
57.35226 33
57.37198 37
57.39170 27
57.41143 15
57.43114 22
57.45087 20
57.47059 24
57.49031 19
57.51003 24
57.52975 16
57.54947 18
57.56919 18
57.58892 22
57.60864 18
57.62836 20
57.64808 24
57.66780 35
57.68752 35
57.70724 44
57.72697 40
57.74669 31
57.76641 22
57.78613 21
57.80585 24
57.82557 22
57.84529 20
57.86502 24
57.88474 22
57.90446 24
57.92418 28
57.94390 27
57.96362 17
57.98334 7
58.00307 12
58.02279 20
58.04251 20
58.06223 15
58.08195 22
58.10167 23
58.12139 26
58.14112 29
58.16083 32
58.18056 30
58.20028 20
58.22000 9
58.23972 16
58.25944 15
58.27916 16
58.29888 19
58.31861 14
58.33833 17
58.35805 9
58.37777 16
58.39749 26
58.41721 30
58.43693 26
58.45666 26
58.47638 14
58.49610 12
58.51582 7
58.53554 12
58.55526 22
58.57498 26
58.59471 27
58.61443 27
58.63415 23
58.65387 23
58.67359 21
58.69331 15
58.71303 11
58.73276 4
58.75248 2
58.77220 2
58.79192 2
58.81164 3
58.83136 1
58.85108 1
58.87081 4
58.89053 12
58.91025 16
58.92997 16
58.94969 15
58.96941 19
58.98914 16
59.00885 13
59.02858 12
59.04830 10
59.06802 6
59.08774 2
59.10746 8
59.12718 16
59.14690 20
59.16663 28
59.18635 31
59.20607 35
59.22579 31
59.24551 29
59.26523 31
59.28495 18
59.30468 15
59.32440 17
59.34412 19
59.36384 27
59.38356 23
59.40328 24
59.42300 16
59.44273 12
59.46245 18
59.48217 19
59.50189 19
59.52161 19
59.54133 15
59.56105 14
59.58078 10
59.60050 14
59.62022 16
59.63994 11
59.65966 8
59.67938 6
59.69910 4
59.71883 4
59.73854 4
59.75827 0
59.77799 8
59.79771 11
59.81743 17
59.83715 21
59.85687 26
59.87659 28
59.89632 30
59.91604 29
59.93576 38
59.95548 33
59.97520 20
59.99492 16
60.01464 12
60.03437 8
60.05409 10
60.07381 12
60.09353 10
60.11325 10
60.13297 4
60.15269 10
60.17242 14
60.19214 12
60.21186 13
60.23158 19
60.25130 19
60.27102 21
60.29074 25
60.31047 28
60.33018 26
60.34991 20
60.36963 16
60.38935 15
60.40907 10
60.42879 9
60.44852 12
60.46823 5
60.48796 6
60.50768 6
60.52740 6
60.54712 19
60.56684 31
60.58656 32
60.60628 31
60.62601 29
60.64573 28
60.66545 22
60.68517 17
60.70489 19
60.72461 13
60.74433 14
60.76406 20
60.78378 25
60.80350 22
60.82322 20
60.84294 22
60.86266 14
60.88238 12
60.90211 19
60.92183 24
60.94155 19
60.96127 16
60.98099 17
61.00071 20
61.02043 12
61.04016 13
61.05987 17
61.07960 19
61.09932 15
61.11904 14
61.13876 18
61.15848 12
61.17820 9
61.19792 15
61.21765 19
61.23737 21
61.25709 20
61.27681 15
61.29653 14
61.31625 6
61.33597 3
61.35570 2
61.37542 3
61.39514 6
61.41486 13
61.43458 17
61.45430 14
61.47403 18
61.49375 17
61.51347 13
61.53319 15
61.55291 15
61.57263 18
61.59235 13
61.61208 8
61.63180 13
61.65152 15
61.67124 18
61.69096 29
61.71068 36
61.73040 31
61.75013 31
61.76985 33
61.78957 35
61.80929 40
61.82901 42
61.84873 39
61.86845 31
61.88818 17
61.90789 14
61.92762 12
61.94734 12
61.96706 15
61.98678 12
62.00650 6
62.02623 0
62.04594 3
62.06567 7
62.08539 16
62.10511 19
62.12483 24
62.14455 23
62.16427 24
62.18399 29
62.20372 43
62.22344 46
62.24316 49
62.26288 37
62.28260 25
62.30232 18
62.32204 17
62.34177 21
62.36149 22
62.38121 18
62.40093 13
62.42065 2
62.44037 0
62.46009 8
62.47982 14
62.49954 10
62.51926 18
62.53898 25
62.55870 24
62.57842 19
62.59814 23
62.61787 24
62.63758 19
62.65731 18
62.67703 30
62.69675 38
62.71647 34
62.73619 40
62.75591 43
62.77563 38
62.79536 42
62.81508 55
62.83480 54
62.85452 47
62.87424 33
62.89396 40
62.91368 29
62.93341 26
62.95313 35
62.97285 37
62.99257 33
63.01229 41
63.03201 46
63.05173 45
63.07146 44
63.09118 49
63.11090 45
63.13062 31
63.15034 29
63.17006 37
63.18978 29
63.20951 13
63.22923 18
63.24895 20
63.26867 18
63.28839 16
63.30811 25
63.32783 30
63.34756 37
63.36727 34
63.38700 36
63.40672 35
63.42644 27
63.44616 22
63.46588 16
63.48560 16
63.50532 21
63.52505 16
63.54477 18
63.56449 19
63.58421 9
63.60393 9
63.62365 11
63.64337 15
63.66310 14
63.68282 17
63.70254 15
63.72226 15
63.74198 16
63.76170 26
63.78142 32
63.80115 28
63.82087 27
63.84059 22
63.86031 11
63.88003 17
63.89975 24
63.91947 29
63.93920 26
63.95892 18
63.97864 15
63.99836 9
64.01808 19
64.03780 33
64.05752 36
64.07724 32
64.09697 25
64.11669 14
64.13641 7
64.15613 5
64.17585 12
64.19558 8
64.21530 3
64.23502 13
64.25474 26
64.27446 30
64.29418 39
64.31390 41
64.33362 35
64.35334 23
64.37307 18
64.39279 29
64.41251 29
64.43223 22
64.45195 21
64.47168 24
64.49140 19
64.51112 23
64.53083 29
64.55056 41
64.57028 40
64.59000 36
64.60972 39
64.62944 36
64.64917 29
64.66889 21
64.68861 20
64.70833 29
64.72805 22
64.74778 22
64.76749 32
64.78721 33
64.80693 27
64.82666 25
64.84638 36
64.86610 38
64.88582 29
64.90554 31
64.92527 30
64.94499 20
64.96471 11
64.98443 14
65.00415 14
65.02387 8
65.04359 6
65.06331 14
65.08303 20
65.10276 22
65.12248 35
65.14220 40
65.16192 41
65.18164 40
65.20137 44
65.22109 40
65.24081 38
65.26052 33
65.28025 30
65.29997 16
65.31969 14
65.33941 13
65.35913 15
65.37886 7
65.39858 7
65.41830 8
65.43802 11
65.45774 13
65.47747 21
65.49718 23
65.51690 20
65.53662 13
65.55635 5
65.57607 1
65.59579 1
65.61551 1
65.63523 10
65.65496 15
65.67468 17
65.69440 16
65.71412 15
65.73384 20
65.75356 20
65.77328 25
65.79300 32
65.81272 33
65.83245 24
65.85217 19
65.87189 18
65.89161 22
65.91133 21
65.93106 24
65.95078 27
65.97049 27
65.99021 25
66.00994 26
66.02966 19
66.04938 20
66.06910 13
66.08882 18
66.10855 27
66.12827 23
66.14799 28
66.16771 29
66.18743 28
66.20716 29
66.22687 29
66.24659 39
66.26631 38
66.28604 24
66.30576 22
66.32548 16
66.34520 18
66.36492 16
66.38465 27
66.40437 30
66.42409 35
66.44381 31
66.46353 28
66.48325 24
66.50297 23
66.52269 19
66.54241 21
66.56214 14
66.58186 16
66.60158 21
66.62130 20
66.64102 22
66.66075 30
66.68047 33
66.70018 38
66.71991 31
66.73963 30
66.75935 37
66.77907 26
66.79879 20
66.81852 24
66.83824 22
66.85796 29
66.87768 23
66.89740 26
66.91713 24
66.93685 17
66.95656 24
66.97628 28
66.99601 28
67.01573 26
67.03545 20
67.05517 19
67.07489 13
67.09462 16
67.11434 20
67.13406 26
67.15378 30
67.17350 26
67.19322 20
67.21294 22
67.23266 28
67.25238 32
67.27211 22
67.29183 30
67.31155 38
67.33127 35
67.35099 28
67.37072 32
67.39044 33
67.41016 25
67.42987 27
67.4496  36
67.46932 35
67.48904 28
67.50876 23
67.52848 19
67.54821 5
67.56793 3
67.58765 15
67.60737 20
67.62709 17
67.64682 21
67.66654 20
67.68625 22
67.70597 12
67.7257  15
67.74542 30
67.76514 36
67.78486 37
67.80458 48
67.82431 49
67.84403 48
67.86375 33
67.88347 26
67.90319 29
67.92291 21
67.94263 15
67.96235 16
67.98207 19
68.00180 17
68.02152 10
68.04124 6
68.06096 14
68.08068 19
68.10041 20
68.12013 22
68.13985 23
68.15956 21
68.17929 9
68.19901 9
68.21873 20
68.23845 26
68.25817 33
68.27790 30
68.29762 30
68.31734 25
68.33706 16
68.35678 19
68.37651 22
68.39622 23
68.41594 25
68.43566 20
68.45539 22
68.47511 32
68.49483 43
68.51455 50
68.53427 54
68.55400 47
68.57372 44
68.59344 34
68.61316 34
68.63288 44
68.65260 44
68.67232 32
68.69204 28
68.71176 20
68.73149 19
68.75121 20
68.77093 28
68.79065 35
68.81037 33
68.83010 29
68.84982 36
68.86954 44
68.88925 45
68.90898 50
68.92870 48
68.94842 43
68.96814 36
68.98786 34
69.00759 32
69.02731 30
69.04703 29
69.06675 28
69.08647 22
69.10620 9
69.12591 13
69.14563 17
69.16535 22
69.18508 21
69.20480 24
69.22452 29
69.24424 36
69.26396 34
69.28369 38
69.30341 40
69.32313 44
69.34285 34
69.36257 26
69.38229 27
69.40201 26
69.42173 23
69.44146 15
69.46118 7
69.48090 20
69.50062 25
69.52034 23
69.54007 33
69.55979 37
69.57951 42
69.59923 39
69.61895 26
69.63867 45
69.65839 47
69.67811 33
69.69783 27
69.71756 26
69.73728 28
69.75700 35
69.77672 29
69.79644 47
69.81617 47
69.83589 35
69.85560 22
69.87532 16
69.89505 19
69.91477 29
69.93449 24
69.95421 41
69.97393 46
69.99366 46
70.01338 37
70.03310 35
70.05282 44
70.07254 44
70.09227 32
70.11198 29
70.13170 30
70.15142 30
70.17115 20
70.19087 29
70.21059 37
70.23031 34
70.25003 25
70.26976 21
70.28948 26
70.30920 25
70.32892 16
70.34864 17
70.36836 17
70.38808 16
70.40780 14
70.42752 25
70.44725 33
70.46697 35
70.48669 41
70.50641 42
70.52613 38
70.54586 28
70.56558 14
70.58529 14
70.60501 8
70.62474 6
70.64446 17
70.66418 18
70.68390 11
70.70362 18
70.72335 15
70.74307 20
70.76279 27
70.78251 32
70.80223 43
70.82195 38
70.84167 28
70.86139 33
70.88111 26
70.90084 17
70.92056 18
70.94028 21
70.96000 26
70.97972 22
70.99945 18
71.01917 16
71.03889 12
71.05861 13
71.07833 18
71.09805 22
71.11777 24
71.13749 23
71.15721 23
71.17694 25
71.19666 29
71.21638 43
71.23610 53
71.25582 45
71.27555 41
71.29527 33
71.31498 31
71.33470 39
71.35443 40
71.37415 45
71.39387 41
71.41359 29
71.43331 21
71.45304 19
71.47276 22
71.49248 28
71.51220 27
71.53192 24
71.55164 22
71.57136 22
71.59108 15
71.61080 15
71.63053 16
71.65025 15
71.66997 15
71.68969 14
71.70941 23
71.72914 23
71.74886 25
71.76858 20
71.78830 24
71.80802 22
71.82774 19
71.84746 19
71.86718 17
71.88690 13
71.90663 18
71.92635 24
71.94607 37
71.96579 34
71.98551 38
72.00524 34
72.02496 23
72.04467 23
72.0644  25
72.08412 31
72.10384 31
72.12356 21
72.14328 21
72.16301 10
72.18273 8
72.20245 20
72.22217 25
72.24189 25
72.26162 29
72.28133 33
72.30105 33
72.32077 31
72.3405  40
72.36022 41
72.37994 32
72.39966 19
72.41938 19
72.43911 21
72.45883 22
72.47855 24
72.49827 24
72.51799 20
72.53771 20
72.55743 20
72.57715 24
72.59687 29
72.6166  37
72.63632 35
72.65604 28
72.67576 22
72.69548 23
72.71521 21
72.73493 19
72.75465 17
72.77436 18
72.79409 11
72.81381 6
72.83353 0
72.85325 0
72.87297 5
72.8927  8
72.91242 14
72.93214 24
72.95186 35
72.97158 46
72.99131 41
73.01102 40
73.03074 44
73.05046 36
73.07019 28
73.08991 30
73.10963 42
73.12935 47
73.14907 35
73.1688  33
73.18852 26
73.20824 19
73.22796 9
73.24768 6
73.26740 11
73.28712 13
73.30684 7
73.32656 11
73.34629 16
73.36601 27
73.38573 40
73.40545 38
73.42517 42
73.44490 46
73.46462 33
73.48434 28
73.50405 23
73.52378 20
73.54350 20
73.56322 11
73.58294 11
73.60266 9
73.62239 3
73.64211 2
73.66183 0
73.68155 1
73.70127 7
73.72100 14
73.74071 31
73.76043 34
73.78015 42
73.79988 44
73.81960 39
73.83932 41
73.85904 34
73.87876 27
73.89849 27
73.91821 13
73.93793 13
73.95765 10
73.97737 10
73.99709 14
74.01681 12
74.03653 14
74.05625 17
74.07598 15
74.09570 22
74.11542 26
74.13514 34
74.15486 38
74.17459 35
74.19431 33
74.21403 34
74.23374 26
74.25347 26
74.27319 24
74.29291 25
74.31263 22
74.33235 16
74.35208 11
74.37180 10
74.39152 7
74.41124 9
74.43096 6
74.45069 14
74.47040 23
74.49012 25
74.50985 26
74.52957 23
74.54929 22
74.56901 25
74.58873 20
74.60845 26
74.62818 36
74.64790 40
74.66762 41
74.68734 34
74.70706 24
74.72678 16
74.74650 2
74.76622 0
74.78595 5
74.80567 9
74.82539 19
74.84511 26
74.86483 33
74.88456 35
74.90428 35
74.92400 37
74.94372 39
74.96344 38
74.98316 41
75.00288 30
75.02260 29
75.04232 25
75.06205 25
75.08177 26
75.10149 36
75.12121 41
75.14093 36
75.16066 33
75.18038 35
75.20009 42
75.21981 44
75.23954 47
75.25926 51
75.27898 54
75.29870 41
75.31842 37
75.33815 33
75.35787 35
75.37759 41
75.39731 56
75.41703 64
75.43675 90
75.45647 100
75.47619 110
75.49591 133
75.51564 195
75.53536 323
75.55508 548
75.57480 811
75.59452 1047
75.61425 1181
75.63397 1191
75.65369 1098
75.67340 966
75.69313 862
75.71285 828
75.73257 856
75.75229 880
75.77201 855
75.79174 760
75.81146 635
75.83118 483
75.85090 353
75.87062 250
75.89035 189
75.91007 150
75.92978 124
75.94950 98
75.96923 92
75.98895 66
76.00867 65
76.02839 79
76.04811 76
76.06784 69
76.08756 65
76.10728 52
76.12700 44
76.14672 31
76.16644 24
76.18616 33
76.20588 36
76.22560 34
76.24533 22
76.26505 12
76.28477 12
76.30449 18
76.32421 25
76.34394 37
76.36366 45
76.38338 47
76.40309 36
76.42282 25
76.44254 22
76.46226 33
76.48198 40
76.50170 39
76.52143 38
76.54115 28
76.56087 12
76.58059 1
76.60031 0
76.62004 3
76.63976 5
76.65947 13
76.67919 12
76.69892 21
76.71864 23
76.73836 19
76.75808 19
76.77780 28
76.79753 34
76.81725 39
76.83697 31
76.85669 29
76.87641 19
76.89613 10
76.91585 5
76.93557 9
76.95529 17
76.97502 14
76.99474 19
77.01446 23
77.03418 26
77.05390 23
77.07363 24
77.09335 20
77.11307 26
77.13279 23
77.15251 36
77.17223 40
77.19195 37
77.21167 31
77.2314  28
77.25112 14
77.27084 15
77.29056 9
77.31028 12
77.33000 6
77.34973 12
77.36945 14
77.38916 21
77.40889 19
77.42861 23
77.44833 19
77.46805 17
77.48777 7
77.5075  11
77.52722 13
77.54694 22
77.56666 21
77.58638 20
77.60611 16
77.62582 12
77.64554 13
77.66526 28
77.68499 39
77.70471 38
77.72443 37
77.74415 35
77.76387 26
77.7836  17
77.80332 13
77.82304 20
77.84276 18
77.86248 13
77.88220 15
77.90192 14
77.92164 10
77.94136 10
77.96109 13
77.98081 21
78.00053 21
78.02025 22
78.03997 19
78.0597  9
78.07942 7
78.09913 2
78.11885 11
78.13858 20
78.15830 30
78.17802 34
78.19774 31
78.21746 24
78.23719 16
78.25691 11
78.27663 13
78.29635 19
78.31607 23
78.3358  31
78.35551 28
78.37523 30
78.39495 26
78.41468 30
78.43440 31
78.45412 35
78.47384 37
78.49356 36
78.51329 30
78.53301 26
78.55273 24
78.57245 23
78.59217 26
78.61189 25
78.63161 19
78.65133 12
78.67105 11
78.69078 7
78.71050 12
78.73022 26
78.74994 32
78.76966 32
78.78939 23
78.80911 17
78.82882 20
78.84854 15
78.86827 17
78.88799 30
78.90771 35
78.92743 35
78.94715 31
78.96688 25
78.98660 23
79.00632 17
79.02604 8
79.04576 8
79.06549 14
79.08520 14
79.10492 22
79.12464 26
79.14437 27
79.16409 24
79.18381 21
79.20353 20
79.22325 20
79.24298 14
79.26270 17
79.28242 28
79.30214 30
79.32186 31
79.34158 40
79.36130 38
79.38102 36
79.40074 35
79.42047 30
79.44019 32
79.45991 25
79.47963 28
79.49935 31
79.51908 25
79.53880 27
79.55851 29
79.57823 24
79.59796 22
79.61768 12
79.63740 15
79.65712 24
79.67684 30
79.69657 37
79.71629 35
79.73601 33
79.75573 33
79.77545 19
79.79518 21
79.81489 23
79.83461 28
79.85434 29
79.87406 26
79.89378 27
79.91350 27
79.93322 23
79.95295 28
79.97267 28
79.99239 29
80.01211 30
80.03183 37
80.05155 33
80.07127 29
80.09099 23
80.11071 24
80.13044 31
80.15016 24
80.16988 26
80.18960 31
80.20932 27
80.22905 31
80.24877 19
80.26849 19
80.28820 24
80.30793 17
80.32765 24
80.34737 27
80.36709 26
80.38681 21
80.40654 9
80.42626 10
80.44598 11
80.46570 13
80.48542 29
80.50515 36
80.52486 40
80.54458 43
80.56430 34
80.58403 35
80.60375 31
80.62347 34
80.64319 43
80.66291 36
80.68264 40
80.70236 40
80.72208 26
80.74180 22
80.76152 9
80.78124 12
80.80096 14
80.82068 12
80.84040 18
80.86013 18
80.87985 13
80.89957 11
80.91929 4
80.93901 6
80.95874 8
80.97846 15
80.99818 22
81.01789 31
81.03762 32
81.05734 33
81.07706 29
81.09678 27
81.11650 23
81.13623 21
81.15595 27
81.17567 35
81.19539 39
81.21511 39
81.23484 31
81.25455 27
81.27427 24
81.29399 17
81.31372 20
81.33344 25
81.35316 37
81.37288 44
81.39260 44
81.41233 39
81.43205 39
81.45177 33
81.47149 31
81.49121 34
81.51093 43
81.53065 44
81.55037 41
81.57009 30
81.58982 18
81.60954 8
81.62926 13
81.64898 22
81.66870 29
81.68843 27
81.70815 21
81.72787 19
81.74758 9
81.76731 14
81.78703 21
81.80675 28
81.82647 24
81.84619 24
81.86592 18
81.88564 18
81.90536 15
81.92508 27
81.94480 25
81.96453 31
81.98424 31
82.00396 33
82.02368 26
82.04341 16
82.06313 11
82.08285 14
82.10257 15
82.12229 27
82.14202 31
82.16174 36
82.18146 39
82.20118 43
82.22090 44
82.24062 36
82.26034 35
82.28006 34
82.29978 24
82.31951 22
82.33923 22
82.35895 25
82.37867 31
82.39839 29
82.41812 39
82.43784 43
82.45756 36
82.47728 28
82.49700 28
82.51672 25
82.53644 29
82.55616 28
82.57589 33
82.59561 33
82.61533 27
82.63505 23
82.65477 22
82.6745  13
82.69422 21
82.71393 29
82.73365 36
82.75338 37
82.77310 34
82.79282 30
82.81254 22
82.83226 15
82.85199 23
82.87171 24
82.89143 31
82.91115 31
82.93087 37
82.95059 37
82.97031 36
82.99003 38
83.00975 38
83.02948 34
83.04920 35
83.06892 34
83.08864 27
83.10836 24
83.12809 23
83.14781 27
83.16753 30
83.18725 34
83.20697 36
83.22669 40
83.24641 36
83.26613 39
83.28585 37
83.30558 32
83.32530 26
83.34502 23
83.36474 26
83.38446 33
83.40419 33
83.42391 29
83.44362 35
83.46334 34
83.48307 22
83.50279 21
83.52251 28
83.54223 29
83.56195 24
83.58168 24
83.60140 30
83.62112 24
83.64084 10
83.66056 9
83.68028 12
83.70000 16
83.71972 15
83.73944 28
83.75917 31
83.77889 31
83.79861 30
83.81833 30
83.83805 24
83.85778 32
83.87750 24
83.89722 40
83.91694 47
83.93666 44
83.95638 47
83.97610 44
83.99582 31
84.01554 34
84.03527 24
84.05499 27
84.07471 24
84.09443 11
84.11415 16
84.13388 23
84.15360 28
84.17331 35
84.19303 37
84.21276 35
84.23248 29
84.25220 29
84.27192 34
84.29164 35
84.31137 46
84.33109 48
84.35081 49
84.37053 39
84.39025 36
84.40997 35
84.42969 27
84.44941 24
84.46913 29
84.48886 29
84.50858 32
84.52830 31
84.54802 29
84.56774 25
84.58747 23
84.60719 26
84.62691 29
84.64663 36
84.66635 39
84.68607 38
84.70579 29
84.72551 24
84.74523 17
84.76496 13
84.78468 12
84.80440 6
84.82412 6
84.84384 11
84.86357 15
84.88329 17
84.90300 15
84.92272 20
84.94245 17
84.96217 21
84.98189 35
85.00161 39
85.02133 49
85.04106 48
85.06078 43
85.08050 41
85.10022 35
85.11994 37
85.13966 37
85.15938 28
85.17910 26
85.19883 18
85.21855 13
85.23827 14
85.25799 16
85.27771 20
85.29744 23
85.31716 25
85.33688 25
85.35660 23
85.37632 17
85.39604 12
85.41576 10
85.43548 8
85.45520 19
85.47493 23
85.49465 32
85.51437 35
85.53409 31
85.55381 24
85.57354 17
85.59326 18
85.61298 25
85.63269 19
85.65242 25
85.67214 23
85.69186 16
85.71158 14
85.73130 8
85.75103 16
85.77075 20
85.79047 26
85.81019 37
85.82991 38
85.84964 34
85.86935 24
85.88907 10
85.90879 11
85.92852 14
85.94824 16
85.96796 27
85.98768 29
86.00740 26
86.02713 16
86.04685 8
86.06657 3
86.08629 0
86.10601 7
86.12573 23
86.14545 30
86.16517 38
86.18489 40
86.20462 29
86.22434 20
86.24406 10
86.26378 16
86.28350 17
86.30323 24
86.32295 33
86.34267 34
86.36238 26
86.38211 20
86.40183 11
86.42155 8
86.44127 7
86.46099 14
86.48072 21
86.50044 21
86.52016 24
86.53988 20
86.55960 17
86.57933 13
86.59904 16
86.61876 14
86.63848 17
86.65821 14
86.67793 17
86.69765 15
86.71737 10
86.73709 13
86.75682 18
86.77654 18
86.79626 19
86.81598 18
86.83570 21
86.85542 21
86.87514 22
86.89486 19
86.91458 17
86.93431 19
86.95403 13
86.97375 21
86.99347 27
87.01319 22
87.03292 27
87.05264 22
87.07236 19
87.09207 13
87.11180 7
87.13152 13
87.15124 12
87.17096 9
87.19068 16
87.21041 15
87.23013 10
87.24985 1
87.26957 1
87.28929 7
87.30902 8
87.32873 11
87.34845 13
87.36817 13
87.38790 12
87.40762 11
87.42734 14
87.44706 19
87.46678 18
87.48651 18
87.50623 16
87.52595 17
87.54567 15
87.56539 15
87.58511 15
87.60483 17
87.62455 14
87.64427 14
87.66400 11
87.68372 13
87.70344 10
87.72316 6
87.74288 6
87.76261 5
87.78233 0
87.80204 2
87.82177 5
87.84149 11
87.86121 14
87.88093 12
87.90065 12
87.92038 14
87.94010 12
87.95982 12
87.97954 11
87.99926 8
88.01899 6
88.03871 7
88.05842 11
88.07814 19
88.09787 22
88.11759 16
88.13731 15
88.15703 10
88.17675 15
88.19648 17
88.21620 19
88.23592 23
88.25564 17
88.27536 12
88.29508 14
88.31480 14
88.33452 20
88.35424 18
88.37397 28
88.39369 33
88.41341 29
88.43313 26
88.45285 15
88.47258 14
88.49230 13
88.51202 9
88.53173 16
88.55146 20
88.57118 22
88.59090 17
88.61062 7
88.63034 16
88.65007 15
88.66979 11
88.68951 8
88.70923 16
88.72895 19
88.74868 17
88.76840 14
88.78811 11
88.80783 10
88.82756 8
88.84728 3
88.86700 14
88.88672 11
88.90644 21
88.92617 25
88.94589 31
88.96561 39
88.98533 46
89.00505 41
89.02477 40
89.04449 24
89.06421 22
89.08393 16
89.10366 13
89.12338 8
89.14310 7
89.16282 13
89.18254 15
89.20227 17
89.22199 17
89.24171 21
89.26142 16
89.28115 14
89.30087 11
89.32059 9
89.34031 9
89.36003 8
89.37976 9
89.39948 15
89.41920 24
89.43892 28
89.45864 38
89.47837 38
89.49809 40
89.51780 28
89.53752 24
89.55725 15
89.57697 11
89.59669 1
89.61641 5
89.63613 3
89.65586 3
89.67558 1
89.69530 3
89.71502 4
89.73474 3
89.75446 2
89.77418 0
89.79390 3
89.81362 8
89.83335 16
89.85307 21
89.87279 28
89.89251 34
89.91223 36
89.93196 32
89.95168 30
89.97140 30
89.99111 30
