?
20.0     9
20.01972 9
20.03944 9
20.05916 15
20.07888 25
20.09860 23
20.11832 26
20.13805 30
20.15777 34
20.17749 46
20.19721 56
20.21693 60
20.23665 48
20.25637 31
20.27609 31
20.29582 36
20.31554 39
20.33526 36
20.35498 38
20.37470 35
20.39442 24
20.41414 25
20.43387 32
20.45359 35
20.47331 25
20.49303 17
20.51275 21
20.53247 24
20.55219 20
20.57192 23
20.59164 24
20.61136 21
20.63108 16
20.65080 23
20.67052 29
20.69024 24
20.70996 18
20.72969 31
20.74941 34
20.76913 34
20.78885 28
20.80857 34
20.82829 36
20.84801 34
20.86774 39
20.88746 49
20.90718 44
20.92690 37
20.94662 26
20.96634 27
20.98606 31
21.00578 32
21.02551 31
21.04523 22
21.06495 17
21.08467 19
21.10439 26
21.12411 27
21.14383 37
21.16356 36
21.18328 31
21.20300 23
21.22272 16
21.24244 14
21.26216 16
21.28188 14
21.30161 21
21.32133 25
21.34105 34
21.36077 30
21.38049 33
21.40021 37
21.41993 38
21.43965 34
21.45938 33
21.47910 29
21.49882 26
21.51854 28
21.53826 43
21.55798 49
21.57770 41
21.59743 30
21.61715 31
21.63687 28
21.65659 29
21.67631 44
21.69603 45
21.71575 35
21.73547 23
21.75520 16
21.77492 18
21.79464 22
21.81436 25
21.83408 31
21.85380 31
21.87352 24
21.89325 18
21.91297 14
21.93269 22
21.95241 25
21.97213 28
21.99185 32
22.01158 39
22.03130 40
22.05102 36
22.07074 32
22.09046 39
22.11018 31
22.12990 28
22.14963 16
22.16935 23
22.18907 28
22.20879 37
22.22851 40
22.24823 44
22.26795 41
22.28767 35
22.3074  29
22.32712 29
22.34684 28
22.36656 27
22.38628 25
22.40600 28
22.42572 27
22.44545 27
22.46517 33
22.48489 33
22.50461 31
22.52433 17
22.54405 13
22.56377 13
22.58349 22
22.60322 33
22.62294 42
22.64266 39
22.66238 36
22.68210 27
22.70182 27
22.72154 21
22.74127 31
22.76099 34
22.78071 30
22.80043 22
22.82015 22
22.83987 22
22.85959 28
22.87932 21
22.89904 29
22.91876 28
22.93848 25
22.95820 32
22.97792 39
22.99764 51
23.01736 54
23.03709 45
23.05681 41
23.07653 31
23.09625 24
23.11597 27
23.13569 32
23.15541 42
23.17514 39
23.19486 28
23.21458 22
23.23430 24
23.25402 28
23.27374 27
23.29346 27
23.31318 29
23.33291 27
23.35263 28
23.37235 33
23.39207 45
23.41179 49
23.43151 41
23.45123 27
23.47096 21
23.49068 15
23.51040 19
23.53012 16
23.54984 22
23.56956 24
23.58928 27
23.60900 26
23.62873 42
23.64845 44
23.66817 46
23.68789 36
23.70761 35
23.72733 29
23.74705 30
23.76678 28
23.78650 35
23.80622 34
23.82594 42
23.84566 39
23.86538 44
23.88510 38
23.90483 44
23.92455 35
23.94427 34
23.96399 28
23.98371 34
24.00343 31
24.02315 35
24.04287 33
24.06260 35
24.08232 40
24.10204 44
24.12176 42
24.14148 49
24.16120 54
24.18092 59
24.20065 67
24.22037 73
24.24009 89
24.25981 89
24.27953 91
24.29925 98
24.31897 103
24.33869 109
24.35842 121
24.37814 124
24.39786 142
24.41758 164
24.43730 195
24.45702 218
24.47674 232
24.49647 230
24.51619 219
24.53591 186
24.55563 167
24.57535 133
24.59507 121
24.61479 92
24.63452 74
24.65424 66
24.67396 70
24.69368 61
24.71340 62
24.73312 46
24.75285 50
24.77257 35
24.79229 31
24.81201 24
24.83173 23
24.85145 20
24.87117 30
24.89089 30
24.91062 34
24.93034 32
24.95006 33
24.96978 17
24.98950 25
25.00922 37
25.02894 42
25.04867 42
25.06839 36
25.08811 31
25.10783 33
25.12755 26
25.14727 48
25.16699 55
25.18671 53
25.20644 47
25.22616 39
25.24588 40
25.26560 41
25.28532 36
25.30504 38
25.32476 27
25.34449 23
25.36421 7
25.38393 13
25.40365 27
25.42337 47
25.44309 56
25.46281 49
25.48254 40
25.50226 40
25.52198 31
25.54170 31
25.56142 31
25.58114 34
25.60086 23
25.62058 19
25.64031 14
25.66003 23
25.67975 31
25.69947 31
25.71919 36
25.73891 28
25.75863 25
25.77836 29
25.79808 22
25.81780 15
25.83752 11
25.85724 10
25.87696 20
25.89668 32
25.91640 45
25.93613 49
25.95585 47
25.97557 34
25.99529 26
26.01501 20
26.03473 14
26.05445 11
26.07418 10
26.09390 15
26.11362 16
26.13334 16
26.15306 21
26.17278 27
26.19250 35
26.21223 34
26.23195 33
26.25167 29
26.27139 16
26.29111 13
26.31083 12
26.33055 12
26.35027 21
26.37000 18
26.38972 21
26.40944 27
26.42916 25
26.44888 31
26.46860 28
26.48832 23
26.50805 24
26.52777 14
26.54749 17
26.56721 22
26.58693 26
26.60665 39
26.62637 45
26.64609 48
26.66582 45
26.68554 27
26.70526 14
26.72498 7
26.74470 14
26.76442 18
26.78414 33
26.80387 40
26.82359 46
26.84331 42
26.86303 37
26.88275 35
26.90247 32
26.92219 17
26.94192 21
26.96164 16
26.98136 10
27.00108 12
27.02080 20
27.04052 24
27.06024 22
27.07996 21
27.09969 19
27.11941 19
27.13913 13
27.15885 18
27.17857 31
27.19829 34
27.21801 34
27.23774 40
27.25746 37
27.27718 31
27.29690 27
27.31662 25
27.33634 27
27.35607 23
27.37579 26
27.39551 30
27.41523 26
27.43495 16
27.45467 12
27.47439 6
27.49411 1
27.51384 3
27.53356 13
27.55328 28
27.57300 36
27.59272 42
27.61244 40
27.63216 31
27.65189 22
27.67161 12
27.69133 19
27.71105 29
27.73077 24
27.75049 30
27.77021 27
27.78994 26
27.80966 24
27.82938 20
27.84910 25
27.86882 17
27.88854 18
27.90826 26
27.92798 23
27.94771 23
27.96743 28
27.98715 34
28.00687 32
28.02659 27
28.04631 27
28.06603 26
28.08576 10
28.10548 13
28.12520 22
28.14492 34
28.16464 34
28.18436 27
28.20408 22
28.22380 22
28.24353 19
28.26325 36
28.28297 34
28.30269 39
28.32241 36
28.34213 31
28.36185 29
28.38158 26
28.4013  25
28.42102 25
28.44074 14
28.46046 21
28.48018 29
28.49990 31
28.51963 33
28.53935 30
28.55907 25
28.57879 25
28.59851 20
28.61823 25
28.63795 26
28.65767 17
28.67740 12
28.69712 5
28.71684 12
28.73656 19
28.75628 23
28.77600 24
28.79572 17
28.81545 12
28.83517 12
28.85489 14
28.87461 19
28.89433 21
28.91405 16
28.93377 14
28.95349 14
28.97322 21
28.99294 30
29.01266 36
29.03238 37
29.05210 39
29.07182 29
29.09154 25
29.11127 14
29.13099 11
29.15071 16
29.17043 24
29.19015 28
29.20987 30
29.22959 20
29.24931 14
29.26904 3
29.28876 10
29.30848 25
29.32820 37
29.34792 41
29.36764 36
29.38736 22
29.40709 11
29.42681 0
29.44653 9
29.46625 16
29.48597 26
29.50569 29
29.52541 23
29.54514 15
29.56486 11
29.58458 10
29.60430 30
29.62402 36
29.64374 41
29.66346 35
29.68318 21
29.70291 6
29.72263 5
29.74235 4
29.76207 16
29.78179 31
29.80151 36
29.82123 39
29.84096 41
29.86068 38
29.88040 56
29.90012 53
29.91984 54
29.93956 56
29.95929 40
29.97901 29
29.99873 17
30.01845 12
30.03817 16
30.05789 20
30.07761 39
30.09734 44
30.11706 49
30.13678 57
30.15650 52
30.17622 63
30.19594 59
30.21566 65
30.23538 75
30.25511 71
30.27483 67
30.29455 59
30.31427 55
30.33399 62
30.35371 57
30.37343 59
30.39316 61
30.41288 52
30.43260 43
30.45232 34
30.47204 30
30.49176 27
30.51148 32
30.53120 42
30.55093 37
30.57065 35
30.59037 41
30.61009 48
30.62981 49
30.64953 47
30.66925 41
30.68898 35
30.7087  20
30.72842 16
30.74814 18
30.76786 28
30.78758 30
30.80730 21
30.82702 15
30.84675 16
30.86647 25
30.88619 32
30.90591 31
30.92563 34
30.94535 31
30.96507 19
30.9848  17
31.00452 16
31.02424 19
31.04396 16
31.06368 15
31.08340 17
31.10312 18
31.12285 26
31.14257 31
31.16229 27
31.18201 25
31.20173 23
31.22145 19
31.24117 11
31.26089 6
31.28062 12
31.30034 16
31.32006 19
31.33978 20
31.35950 21
31.37922 23
31.39894 21
31.41867 24
31.43839 29
31.45811 33
31.47783 34
31.49755 24
31.51727 20
31.53699 17
31.55671 8
31.57644 7
31.59616 11
31.61588 6
31.63560 9
31.65532 18
31.67504 27
31.69476 37
31.71449 38
31.73421 41
31.75393 42
31.77365 35
31.79337 29
31.81309 27
31.83281 17
31.85254 21
31.87226 16
31.89198 15
31.91170 13
31.93142 27
31.95114 28
31.97086 28
31.99058 34
32.01031 36
32.03003 35
32.04975 32
32.06947 25
32.08919 30
32.10891 23
32.12863 21
32.14836 28
32.16808 29
32.18780 35
32.20752 40
32.22724 31
32.24696 29
32.26668 19
32.28641 15
32.30613 23
32.32585 32
32.34557 39
32.36529 53
32.38501 58
32.40473 56
32.42446 44
32.44418 30
32.46390 21
32.48362 23
32.50334 31
32.52306 50
32.54278 63
32.56250 63
32.58223 54
32.60195 32
32.62167 12
32.64139 11
32.66111 7
32.68083 16
32.70055 27
32.72028 31
32.74000 44
32.75972 42
32.77944 34
32.79916 39
32.81888 38
32.83860 48
32.85833 51
32.87805 51
32.89777 52
32.91749 34
32.93721 16
32.95693 12
32.97665 9
32.99638 20
33.01610 30
33.03582 42
33.05554 46
33.07526 47
33.09498 41
33.11470 34
33.13443 33
33.15415 39
33.17387 46
33.19359 63
33.21331 66
33.23303 67
33.25275 65
33.27248 60
33.29219 59
33.31192 60
33.33164 71
33.35136 93
33.37108 101
33.39080 117
33.41052 125
33.43024 131
33.44997 143
33.46969 153
33.48941 187
33.50913 215
33.52885 235
33.54857 244
33.56829 229
33.58802 207
33.60774 189
33.62746 170
33.64718 165
33.66690 156
33.68662 145
33.70634 122
33.72607 89
33.74579 53
33.76551 38
33.78523 36
33.80495 44
33.82467 60
33.84439 68
33.86412 63
33.88384 46
33.90356 28
33.92328 23
33.94300 13
33.96272 19
33.98244 32
34.00217 45
34.02188 52
34.04161 51
34.06133 54
34.08105 58
34.10077 50
34.12049 53
34.14021 45
34.15993 43
34.17966 33
34.19938 26
34.21910 22
34.23882 25
34.25854 34
34.27826 42
34.29798 39
34.31771 44
34.33743 38
34.35715 39
34.37687 27
34.39659 27
34.41631 24
34.43603 28
34.45576 37
34.47548 48
34.49520 49
34.51492 47
34.53464 30
34.55436 21
34.57408 11
34.59381 19
34.61353 25
34.63325 37
34.65297 41
34.67269 42
34.69241 37
34.71213 41
34.73186 45
34.75157 55
34.77130 54
34.79102 64
34.81074 56
34.83046 47
34.85018 36
34.86990 33
34.88962 37
34.90935 37
34.92907 38
34.94879 47
34.96851 38
34.98823 40
35.00795 43
35.02767 39
35.04740 46
35.06712 45
35.08684 44
35.10656 50
35.12628 49
35.14600 60
35.16573 56
35.18545 55
35.20517 68
35.22489 63
35.24461 60
35.26433 59
35.28405 58
35.30378 46
35.32350 35
35.34322 49
35.36294 59
35.38266 68
35.40238 75
35.42210 81
35.44183 81
35.46155 76
35.48127 75
35.50099 73
35.52071 74
35.54043 91
35.56015 94
35.57988 107
35.59959 118
35.61932 130
35.63904 134
35.65876 142
35.67848 151
35.69820 146
35.71792 132
35.73764 119
35.75737 99
35.77709 88
35.79681 77
35.81653 92
35.83625 99
35.85597 105
35.87569 104
35.89542 97
35.91514 80
35.93486 86
35.95458 77
35.97430 86
35.99402 105
36.01374 130
36.03347 148
36.05319 152
36.07291 169
36.09263 182
36.11235 174
36.13207 168
36.15179 168
36.17152 164
36.19124 153
36.21096 142
36.23068 149
36.25040 139
36.27012 122
36.28984 105
36.30957 83
36.32928 58
36.34901 42
36.36873 30
36.38845 34
36.40817 40
36.42789 49
36.44761 51
36.46733 56
36.48706 54
36.50678 53
36.52650 44
36.54622 52
36.56594 47
36.58566 42
36.60538 36
36.62511 44
36.64483 50
36.66455 51
36.68427 56
36.70399 62
36.72371 40
36.74343 32
36.76316 38
36.78288 38
36.80260 46
36.82232 53
36.84204 55
36.86176 44
36.88148 28
36.90121 36
36.92092 39
36.94065 47
36.96037 53
36.98009 66
36.99981 79
37.01953 94
37.03926 104
37.05897 127
37.07870 120
37.09842 139
37.11814 149
37.13786 192
37.15758 255
37.17730 339
37.19702 416
37.21675 501
37.23647 518
37.25619 506
37.27591 441
37.29563 353
37.31535 256
37.33507 185
37.35480 134
37.37452 120
37.39424 113
37.41396 106
37.43368 88
37.45340 63
37.47312 42
37.49285 31
37.51257 27
37.53229 38
37.55201 60
37.57173 65
37.59145 59
37.61117 56
37.63090 52
37.65062 43
37.67034 52
37.69006 52
37.70978 45
37.72950 32
37.74922 31
37.76894 35
37.78867 32
37.80839 30
37.82811 40
37.84783 40
37.86755 42
37.88728 50
37.90699 61
37.92672 53
37.94644 47
37.96616 39
37.98588 26
38.00560 18
38.02532 28
38.04504 35
38.06477 48
38.08449 48
38.10421 57
38.12393 49
38.14365 38
38.16337 22
38.18309 24
38.20282 25
38.22254 30
38.24226 33
38.26198 39
38.28170 34
38.30142 33
38.32114 26
38.34087 24
38.36059 31
38.38031 29
38.40003 33
38.41975 36
38.43947 37
38.45919 31
38.47892 30
38.49863 29
38.51836 36
38.53808 30
38.55780 30
38.57752 37
38.59724 33
38.61697 24
38.63668 25
38.65641 37
38.67613 39
38.69585 38
38.71557 39
38.73529 44
38.75501 32
38.77473 30
38.79446 31
38.81418 32
38.83390 24
38.85362 24
38.87334 19
38.89306 18
38.91278 23
38.93251 27
38.95223 34
38.97195 27
38.99167 30
39.01139 24
39.03111 21
39.05083 24
39.07056 31
39.09028 33
39.11000 44
39.12972 40
39.14944 45
39.16916 36
39.18888 30
39.20861 25
39.22832 17
39.24805 22
39.26777 25
39.28749 27
39.30721 36
39.32693 40
39.34665 40
39.36637 46
39.38610 44
39.40582 42
39.42554 35
39.44526 30
39.46498 24
39.48470 22
39.50442 24
39.52415 32
39.54387 42
39.56359 45
39.58331 54
39.60303 55
39.62275 57
39.64247 50
39.66220 48
39.68192 50
39.70164 53
39.72136 49
39.74108 48
39.76080 48
39.78052 45
39.80025 33
39.81997 29
39.83969 26
39.85941 18
39.87913 14
39.89885 9
39.91857 12
39.93830 6
39.95801 10
39.97774 15
39.99746 23
40.01718 28
40.03690 39
40.05662 41
40.07634 40
40.09606 24
40.11579 21
40.13551 14
40.15523 6
40.17495 8
40.19467 13
40.21439 16
40.23411 18
40.25384 15
40.27356 14
40.29328 13
40.31300 8
40.33272 13
40.35244 14
40.37216 20
40.39189 26
40.41161 29
40.43133 26
40.45105 23
40.47077 15
40.49049 9
40.51022 4
40.52994 0
40.54966 0
40.56938 4
40.58910 4
40.60882 6
40.62854 7
40.64827 7
40.66799 3
40.68771 0
40.70743 5
40.72715 11
40.74687 14
40.76659 16
40.78632 15
40.80603 10
40.82576 1
40.84548 0
40.86520 5
40.88492 8
40.90464 7
40.92436 10
40.94408 9
40.96381 7
40.98353 7
41.00325 12
41.02297 14
41.04269 12
41.06241 6
41.08213 10
41.10186 10
41.12158 11
41.14130 14
41.16102 14
41.18074 11
41.20046 3
41.22018 1
41.23991 0
41.25963 6
41.27935 10
41.29907 15
41.31879 21
41.33851 23
41.35823 24
41.37796 22
41.39768 17
41.4174  20
41.43712 18
41.45684 14
41.47656 17
41.49628 20
41.51601 22
41.53572 22
41.55545 21
41.57517 17
41.59489 17
41.61461 11
41.63433 11
41.65405 12
41.67377 11
41.69350 12
41.71322 7
41.73294 4
41.75266 5
41.77238 4
41.79210 3
41.81182 1
41.83155 2
41.85127 0
41.87099 1
41.89071 4
41.91043 4
41.93015 5
41.94987 3
41.96960 3
41.98932 2
42.00904 1
42.02876 2
42.04848 2
42.06820 1
42.08792 0
42.10765 0
42.12737 0
42.14709 5
42.16681 7
42.18653 12
42.20625 13
42.22597 12
42.24570 7
42.26541 6
42.28514 8
42.30486 13
42.32458 13
42.34430 18
42.36402 14
42.38374 15
42.40346 10
42.42319 14
42.44291 27
42.46263 31
42.48235 33
42.50207 26
42.52179 18
42.54151 24
42.56124 17
42.58096 15
42.60068 23
42.62040 27
42.64012 30
42.65984 17
42.67956 24
42.69929 31
42.71901 31
42.73873 23
42.75845 26
42.77817 33
42.79789 29
42.81761 14
42.83734 28
42.85706 29
42.87678 31
42.89650 29
42.91622 28
42.93594 26
42.95566 20
42.97539 10
42.99511 24
43.01483 32
43.03455 44
43.05427 55
43.07399 61
43.09371 74
43.11343 69
43.13316 61
43.15288 63
43.17260 74
43.19232 99
43.21204 128
43.23176 191
43.25148 267
43.27121 311
43.29093 336
43.31065 325
43.33037 285
43.35009 236
43.36981 165
43.38953 139
43.40926 112
43.42898 93
43.44870 86
43.46842 73
43.48814 79
43.50786 74
43.52758 83
43.54731 110
43.56703 128
43.58675 149
43.60647 177
43.62619 218
43.64591 259
43.66563 299
43.68536 389
43.70508 499
43.7248  621
43.74452 785
43.76424 1105
43.78396 1764
43.80368 2826
43.82341 5188
43.84312 9574
43.86285 14409
43.88257 17914
43.90229 19246
43.92201 18213
43.94173 15075
43.96145 10650
43.98117 6691
44.0009  4459
44.02062 3081
44.04034 1970
44.06006 1164
44.07978 683
44.09950 437
44.11922 330
44.13895 245
44.15867 222
44.17839 243
44.19811 261
44.21783 249
44.23755 221
44.25727 190
44.277   136
44.29672 99
44.31644 61
44.33616 28
44.35588 39
44.37560 49
44.39532 72
44.41505 81
44.43477 80
44.45449 92
44.47421 69
44.49393 53
44.51365 50
44.53337 59
44.55310 68
44.57281 66
44.59254 73
44.61226 76
44.63198 60
44.65170 41
44.67142 35
44.69114 35
44.71086 40
44.73059 54
44.75031 64
44.77003 75
44.78975 81
44.80947 64
44.82919 50
44.84891 30
44.86864 25
44.88836 24
44.90808 31
44.92780 48
44.94752 60
44.96724 64
44.98696 62
45.00669 56
45.02641 51
45.04613 40
45.06585 39
45.08557 32
45.10529 26
45.12501 43
45.14474 53
45.16446 60
45.18418 64
45.20390 55
45.22362 46
45.24334 28
45.26306 12
45.28279 16
45.30250 10
45.32223 24
45.34195 32
45.36167 34
45.38139 33
45.40111 36
45.42083 31
45.44055 29
45.46028 35
45.48000 53
45.49972 54
45.51944 48
45.53916 38
45.55888 32
45.57860 21
45.59833 11
45.61805 18
45.63777 29
45.65749 44
45.67721 46
45.69693 54
45.71666 64
45.73638 63
45.75610 50
45.77582 39
45.79554 33
45.81526 26
45.83498 19
45.85471 15
45.87443 22
45.89415 26
45.91387 24
45.93359 26
45.95331 24
45.97303 21
45.99276 25
46.01248 16
46.0322  19
46.05192 26
46.07164 34
46.09136 42
46.11108 44
46.13081 56
46.15052 55
46.17025 43
46.18997 36
46.20969 29
46.22941 26
46.24913 16
46.26885 12
46.28857 26
46.3083  25
46.32802 27
46.34774 30
46.36746 40
46.38718 45
46.40690 36
46.42662 33
46.44635 36
46.46607 27
46.48579 17
46.50551 12
46.52523 14
46.54495 9
46.56467 10
46.5844  18
46.60412 25
46.62384 28
46.64356 35
46.66328 44
46.68300 41
46.70272 33
46.72245 30
46.74217 30
46.76189 24
46.78161 21
46.80133 26
46.82105 34
46.84077 42
46.8605  43
46.88021 36
46.89994 37
46.91966 33
46.93938 32
46.95910 25
46.97882 33
46.99854 37
47.01826 42
47.03799 36
47.05771 34
47.07743 32
47.09715 35
47.11687 27
47.13659 27
47.15631 31
47.17604 39
47.19576 34
47.21548 41
47.23520 45
47.25492 51
47.27464 43
47.29436 34
47.31409 29
47.33381 21
47.35353 12
47.37325 19
47.39297 25
47.41269 31
47.43241 42
47.45214 43
47.47186 42
47.49158 45
47.51130 46
47.53102 44
47.55074 41
47.57046 36
47.59019 29
47.60990 18
47.62963 18
47.64935 25
47.66907 28
47.68879 34
47.70851 41
47.72823 39
47.74795 27
47.76768 24
47.78740 17
47.80712 21
47.82684 18
47.84656 20
47.86628 31
47.88600 41
47.90573 46
47.92545 51
47.94517 43
47.96489 44
47.98461 34
48.00433 24
48.02405 19
48.04378 16
48.06350 19
48.08322 18
48.10294 12
48.12266 20
48.14238 34
48.16210 34
48.18183 38
48.20155 44
48.22127 45
48.24099 35
48.26071 22
48.28043 32
48.30015 42
48.31988 40
48.3396  47
48.35932 62
48.37904 60
48.39876 56
48.41848 43
48.43821 44
48.45792 41
48.47765 35
48.49737 32
48.51709 31
48.53681 32
48.55653 34
48.57625 25
48.59597 22
48.6157  25
48.63542 23
48.65514 20
48.67486 19
48.69458 18
48.71430 24
48.73402 20
48.75375 23
48.77347 27
48.79319 31
48.81291 41
48.83263 43
48.85235 36
48.87207 40
48.8918  44
48.91152 44
48.93124 36
48.95096 34
48.97068 29
48.99040 15
49.01012 10
49.02985 6
49.04956 20
49.06929 27
49.08901 30
49.10873 34
49.12845 37
49.14817 35
49.1679  35
49.18761 29
49.20734 35
49.22706 38
49.24678 44
49.26650 40
49.28622 46
49.30594 39
49.32566 33
49.34539 28
49.36511 18
49.38483 30
49.40455 39
49.42427 45
49.44399 50
49.46371 40
49.48344 35
49.50316 27
49.52288 21
49.54260 35
49.56232 42
49.58204 52
49.60176 51
49.62149 49
49.64121 48
49.66093 42
49.68065 42
49.70037 37
49.72009 29
49.73981 29
49.75954 25
49.77925 28
49.79898 32
49.81870 40
49.83842 48
49.85814 54
49.87786 62
49.89759 87
49.91730 90
49.93703 91
49.95675 86
49.97647 81
49.99619 65
50.01591 60
50.03563 54
50.05535 74
50.07508 82
50.09480 95
50.11452 108
50.13424 115
50.15396 112
50.17368 114
50.19340 103
50.21313 111
50.23285 102
50.25257 102
50.27229 100
50.29201 93
50.31173 80
50.33145 71
50.35118 57
50.37090 51
50.39062 40
50.41034 49
50.43006 49
50.44978 54
50.46950 62
50.48923 59
50.50894 54
50.52867 59
50.54839 54
50.56811 60
50.58783 69
50.60755 75
50.62727 78
50.64699 76
50.66672 77
50.68644 89
50.70616 87
50.72588 81
50.74560 93
50.76532 106
50.78504 121
50.80477 144
50.82449 182
50.84421 223
50.86393 257
50.88365 279
50.90337 317
50.9231  355
50.94282 399
50.96254 463
50.98226 557
51.00198 685
51.02170 1126
51.04142 2403
51.06115 4617
51.08087 7192
51.10059 9411
51.12031 10705
51.14003 10716
51.15975 9472
51.17947 7515
51.1992  5686
51.21892 4380
51.23864 3393
51.25836 2622
51.27808 1998
51.29780 1462
51.31752 1058
51.33725 754
51.35696 534
51.37669 413
51.39641 304
51.41613 245
51.43585 205
51.45557 154
51.47529 140
51.49501 142
51.51474 123
51.53446 120
51.55418 113
51.57390 103
51.59362 106
51.61334 92
51.63306 85
51.65279 89
51.67251 72
51.69223 66
51.71195 53
51.73167 47
51.75139 51
51.77111 50
51.79084 59
51.81056 72
51.83028 67
51.85000 65
51.86972 60
51.88944 52
51.90916 50
51.92889 42
51.94861 44
51.96833 47
51.98805 38
52.00777 41
52.02749 45
52.04721 36
52.06694 42
52.08665 47
52.10638 47
52.12610 50
52.14582 45
52.16554 41
52.18526 44
52.20498 33
52.22470 30
52.24443 31
52.26415 20
52.28387 19
52.30359 23
52.32331 19
52.34303 29
52.36275 26
52.38248 23
52.40220 29
52.42192 30
52.44164 33
52.46136 41
52.48108 38
52.50080 40
52.52053 34
52.54025 27
52.55997 25
52.57969 18
52.59941 13
52.61913 18
52.63885 18
52.65858 27
52.67830 33
52.69802 30
52.71774 33
52.73746 29
52.75718 29
52.77690 29
52.79663 17
52.81634 15
52.83607 24
52.85579 24
52.87551 38
52.89523 46
52.91495 54
52.93467 52
52.95439 46
52.97412 49
52.99384 53
53.01356 38
53.03328 30
53.05300 23
53.07272 20
53.09244 14
53.11217 15
53.13189 17
53.15161 25
53.17133 22
53.19105 29
53.21077 31
53.23049 45
53.25022 45
53.26994 41
53.28966 32
53.30938 31
53.32910 17
53.34882 16
53.36854 11
53.38827 17
53.40799 19
53.42771 19
53.44743 18
53.46715 24
53.48687 21
53.50659 26
53.52632 34
53.54604 38
53.56576 47
53.58548 49
53.60520 42
53.62492 33
53.64465 22
53.66436 16
53.68409 16
53.70381 25
53.72353 31
53.74325 26
53.76297 36
53.78269 44
53.80241 46
53.82214 46
53.84186 46
53.86158 42
53.88130 30
53.90102 14
53.92074 18
53.94046 22
53.96019 15
53.97991 24
53.99963 29
54.01935 26
54.03907 24
54.05879 16
54.07851 10
54.09824 9
54.11796 1
54.13768 5
54.15740 13
54.17712 20
54.19684 28
54.21656 37
54.23629 38
54.25601 39
54.27573 27
54.29545 23
54.31517 21
54.33489 22
54.35461 23
54.37434 26
54.39405 30
54.41378 33
54.43350 25
54.45322 30
54.47294 37
54.49266 40
54.51238 33
54.53210 36
54.55183 44
54.57155 54
54.59127 57
54.61099 64
54.63071 71
54.65043 75
54.67015 63
54.68988 54
54.70960 46
54.72932 57
54.74904 54
54.76876 58
54.78848 62
54.80820 73
54.82793 70
54.84765 62
54.86737 57
54.88709 50
54.90681 35
54.92653 42
54.94625 39
54.96598 41
54.98570 40
55.00542 35
55.02514 31
55.04486 27
55.06458 27
55.08430 34
55.10403 30
55.12374 28
55.14347 27
55.16319 23
55.18291 21
55.20263 29
55.22235 31
55.24207 31
55.26179 25
55.28152 20
55.30124 21
55.32096 18
55.34068 16
55.36040 18
55.38012 16
55.39984 14
55.41957 11
55.43929 18
55.45901 28
55.47873 35
55.49845 36
55.51817 39
55.53789 38
55.55762 33
55.57734 24
55.59706 22
55.61678 20
55.63650 18
55.65622 8
55.67594 9
55.69567 16
55.71539 24
55.73511 28
55.75483 32
55.77455 41
55.79427 38
55.81399 32
55.83372 29
55.85343 28
55.87316 25
55.89288 22
55.91260 22
55.93232 29
55.95204 26
55.97176 24
55.99148 20
56.01121 13
56.03093 4
56.05065 4
56.07037 4
56.09009 9
56.10981 7
56.12953 16
56.14926 23
56.16898 25
56.18870 36
56.20842 36
56.22814 37
56.24786 33
56.26759 22
56.28731 19
56.30703 11
56.32675 2
56.34647 3
56.36619 0
56.38591 4
56.40564 10
56.42536 16
56.44508 24
56.46480 35
56.48452 40
56.50424 45
56.52396 42
56.54369 28
56.56341 22
56.58313 16
56.60285 8
56.62257 14
56.64229 18
56.66201 19
56.68174 20
56.70145 17
56.72118 10
56.74090 17
56.76062 20
56.78034 25
56.80006 25
56.81978 27
56.83950 30
56.85923 40
56.87895 42
56.89867 51
56.91839 47
56.93811 37
56.95783 29
56.97755 23
56.99728 21
57.01700 26
57.03672 24
57.05644 15
57.07616 8
57.09588 14
57.11560 16
57.13533 25
57.15505 39
57.17477 36
57.19449 35
57.21421 36
57.23393 39
57.25365 43
57.27338 46
57.29310 54
57.31282 48
57.33254 37
57.35226 30
57.37198 32
57.39170 32
57.41143 31
57.43114 32
57.45087 37
57.47059 37
57.49031 39
57.51003 38
57.52975 39
57.54947 36
57.56919 28
57.58892 21
57.60864 25
57.62836 31
57.64808 32
57.66780 31
57.68752 29
57.70724 21
57.72697 17
57.74669 20
57.76641 23
57.78613 20
57.80585 17
57.82557 18
57.84529 26
57.86502 30
57.88474 35
57.90446 39
57.92418 35
57.94390 30
57.96362 28
57.98334 28
58.00307 29
58.02279 23
58.04251 21
58.06223 18
58.08195 16
58.10167 24
58.12139 27
58.14112 28
58.16083 26
58.18056 26
58.20028 29
58.22000 22
58.23972 25
58.25944 37
58.27916 44
58.29888 43
58.31861 45
58.33833 42
58.35805 26
58.37777 21
58.39749 22
58.41721 22
58.43693 21
58.45666 25
58.47638 26
58.49610 21
58.51582 17
58.53554 13
58.55526 18
58.57498 22
58.59471 27
58.61443 31
58.63415 31
58.65387 36
58.67359 32
58.69331 23
58.71303 30
58.73276 28
58.75248 23
58.77220 21
58.79192 20
58.81164 31
58.83136 32
58.85108 29
58.87081 25
58.89053 17
58.91025 13
58.92997 17
58.94969 21
58.96941 27
58.98914 32
59.00885 31
59.02858 30
59.04830 28
59.06802 20
59.08774 16
59.10746 17
59.12718 20
59.14690 25
59.16663 33
59.18635 39
59.20607 40
59.22579 28
59.24551 24
59.26523 21
59.28495 16
59.30468 12
59.32440 21
59.34412 25
59.36384 24
59.38356 25
59.40328 32
59.42300 34
59.44273 27
59.46245 34
59.48217 36
59.50189 34
59.52161 34
59.54133 44
59.56105 45
59.58078 39
59.60050 36
59.62022 30
59.63994 23
59.65966 23
59.67938 23
59.69910 19
59.71883 23
59.73854 21
59.75827 25
59.77799 21
59.79771 23
59.81743 23
59.83715 16
59.85687 15
59.87659 31
59.89632 38
59.91604 38
59.93576 42
59.95548 45
59.97520 40
59.99492 33
60.01464 36
60.03437 32
60.05409 26
60.07381 12
60.09353 9
60.11325 6
60.13297 8
60.15269 14
60.17242 19
60.19214 27
60.21186 29
60.23158 24
60.25130 20
60.27102 19
60.29074 25
60.31047 25
60.33018 25
60.34991 33
60.36963 33
60.38935 30
60.40907 22
60.42879 27
60.44852 22
60.46823 19
60.48796 24
60.50768 27
60.52740 27
60.54712 31
60.56684 32
60.58656 39
60.60628 37
60.62601 40
60.64573 33
60.66545 25
60.68517 26
60.70489 28
60.72461 27
60.74433 27
60.76406 25
60.78378 15
60.80350 11
60.82322 11
60.84294 22
60.86266 21
60.88238 21
60.90211 12
60.92183 18
60.94155 20
60.96127 28
60.98099 33
61.00071 37
61.02043 31
61.04016 38
61.05987 29
61.07960 34
61.09932 31
61.11904 26
61.13876 20
61.15848 19
61.17820 21
61.19792 29
61.21765 25
61.23737 23
61.25709 28
61.27681 32
61.29653 32
61.31625 34
61.33597 33
61.35570 30
61.37542 23
61.39514 22
61.41486 27
61.43458 26
61.45430 29
61.47403 27
61.49375 24
61.51347 21
61.53319 12
61.55291 11
61.57263 9
61.59235 0
61.61208 12
61.63180 23
61.65152 31
61.67124 27
61.69096 26
61.71068 31
61.73040 29
61.75013 27
61.76985 34
61.78957 32
61.80929 27
61.82901 18
61.84873 17
61.86845 13
61.88818 13
61.90789 16
61.92762 24
61.94734 33
61.96706 49
61.98678 52
62.00650 57
62.02623 45
62.04594 38
62.06567 25
62.08539 25
62.10511 26
62.12483 25
62.14455 18
62.16427 19
62.18399 14
62.20372 20
62.22344 24
62.24316 28
62.26288 26
62.28260 20
62.30232 21
62.32204 22
62.34177 27
62.36149 25
62.38121 28
62.40093 33
62.42065 36
62.44037 43
62.46009 51
62.47982 56
62.49954 52
62.51926 43
62.53898 36
62.55870 36
62.57842 35
62.59814 41
62.61787 44
62.63758 50
62.65731 52
62.67703 59
62.69675 64
62.71647 83
62.73619 103
62.75591 117
62.77563 130
62.79536 154
62.81508 153
62.83480 152
62.85452 156
62.87424 162
62.89396 150
62.91368 120
62.93341 103
62.95313 84
62.97285 61
62.99257 58
63.01229 63
63.03201 60
63.05173 52
63.07146 43
63.09118 44
63.11090 43
63.13062 52
63.15034 63
63.17006 60
63.18978 46
63.20951 40
63.22923 34
63.24895 32
63.26867 30
63.28839 32
63.30811 34
63.32783 29
63.34756 33
63.36727 40
63.38700 44
63.40672 47
63.42644 42
63.44616 50
63.46588 52
63.48560 44
63.50532 45
63.52505 43
63.54477 41
63.56449 40
63.58421 35
63.60393 40
63.62365 33
63.64337 21
63.66310 18
63.68282 23
63.70254 29
63.72226 29
63.74198 28
63.76170 30
63.78142 20
63.80115 23
63.82087 20
63.84059 30
63.86031 26
63.88003 27
63.89975 35
63.91947 42
63.93920 36
63.95892 39
63.97864 30
63.99836 34
64.01808 24
64.03780 32
64.05752 34
64.07724 31
64.09697 18
64.11669 16
64.13641 8
64.15613 15
64.17585 28
64.19558 39
64.21530 36
64.23502 40
64.25474 29
64.27446 32
64.29418 30
64.31390 36
64.33362 44
64.35334 36
64.37307 26
64.39279 26
64.41251 10
64.43223 12
64.45195 15
64.47168 21
64.49140 29
64.51112 33
64.53083 44
64.55056 41
64.57028 37
64.59000 33
64.60972 29
64.62944 28
64.64917 27
64.66889 24
64.68861 25
64.70833 10
64.72805 16
64.74778 19
64.76749 26
64.78721 35
64.80693 40
64.82666 45
64.84638 44
64.86610 34
64.88582 42
64.90554 44
64.92527 42
64.94499 44
64.96471 36
64.98443 43
65.00415 37
65.02387 30
65.04359 26
65.06331 15
65.08303 7
65.10276 7
65.12248 7
65.14220 20
65.16192 28
65.18164 32
65.20137 38
65.22109 33
65.24081 36
65.26052 32
65.28025 31
65.29997 28
65.31969 28
65.33941 22
65.35913 24
65.37886 20
65.39858 18
65.41830 11
65.43802 15
65.45774 18
65.47747 26
65.49718 30
65.51690 26
65.53662 30
65.55635 29
65.57607 34
65.59579 36
65.61551 30
65.63523 31
65.65496 27
65.67468 19
65.69440 25
65.71412 28
65.73384 32
65.75356 29
65.77328 27
65.79300 34
65.81272 42
65.83245 49
65.85217 52
65.87189 45
65.89161 31
65.91133 23
65.93106 21
65.95078 19
65.97049 18
65.99021 15
66.00994 12
66.02966 14
66.04938 13
66.06910 20
66.08882 28
66.10855 32
66.12827 35
66.14799 30
66.16771 30
66.18743 34
66.20716 28
66.22687 28
66.24659 26
66.26631 23
66.28604 23
66.30576 19
66.32548 22
66.34520 22
66.36492 25
66.38465 31
66.40437 22
66.42409 22
66.44381 27
66.46353 28
66.48325 27
66.50297 30
66.52269 38
66.54241 40
66.56214 29
66.58186 26
66.60158 21
66.62130 7
66.64102 1
66.66075 3
66.68047 13
66.70018 18
66.71991 17
66.73963 25
66.75935 24
66.77907 18
66.79879 18
66.81852 18
66.83824 20
66.85796 18
66.87768 12
66.89740 21
66.91713 29
66.93685 31
66.95656 32
66.97628 28
66.99601 24
67.01573 19
67.03545 13
67.05517 21
67.07489 29
67.09462 32
67.11434 33
67.13406 36
67.15378 36
67.17350 30
67.19322 34
67.21294 37
67.23266 28
67.25238 23
67.27211 21
67.29183 24
67.31155 19
67.33127 17
67.35099 26
67.37072 24
67.39044 19
67.41016 15
67.42987 16
67.4496  10
67.46932 6
67.48904 13
67.50876 20
67.52848 21
67.54821 27
67.56793 29
67.58765 33
67.60737 24
67.62709 20
67.64682 21
67.66654 19
67.68625 11
67.70597 10
67.7257  11
67.74542 13
67.76514 18
67.78486 25
67.80458 29
67.82431 37
67.84403 34
67.86375 34
67.88347 34
67.90319 35
67.92291 35
67.94263 38
67.96235 38
67.98207 37
68.00180 34
68.02152 37
68.04124 40
68.06096 41
68.08068 34
68.10041 30
68.12013 21
68.13985 4
68.15956 5
68.17929 8
68.19901 19
68.21873 29
68.23845 34
68.25817 33
68.27790 30
68.29762 29
68.31734 40
68.33706 39
68.35678 49
68.37651 53
68.39622 39
68.41594 36
68.43566 36
68.45539 43
68.47511 47
68.49483 34
68.51455 33
68.53427 28
68.55400 15
68.57372 19
68.59344 25
68.61316 25
68.63288 28
68.65260 29
68.67232 29
68.69204 37
68.71176 42
68.73149 41
68.75121 47
68.77093 52
68.79065 52
68.81037 54
68.83010 48
68.84982 47
68.86954 38
68.88925 26
68.90898 20
68.92870 16
68.94842 7
68.96814 4
68.98786 6
69.00759 12
69.02731 20
69.04703 28
69.06675 34
69.08647 32
69.10620 37
69.12591 41
69.14563 42
69.16535 47
69.18508 49
69.20480 53
69.22452 48
69.24424 38
69.26396 34
69.28369 31
69.30341 22
69.32313 12
69.34285 17
69.36257 21
69.38229 21
69.40201 21
69.42173 19
69.44146 22
69.46118 21
69.48090 15
69.50062 29
69.52034 29
69.54007 25
69.55979 16
69.57951 13
69.59923 20
69.61895 31
69.63867 38
69.65839 51
69.67811 55
69.69783 46
69.71756 37
69.73728 26
69.75700 26
69.77672 32
69.79644 34
69.81617 43
69.83589 46
69.85560 38
69.87532 26
69.89505 14
69.91477 14
69.93449 32
69.95421 48
69.97393 53
69.99366 59
70.01338 49
70.03310 31
70.05282 27
70.07254 31
70.09227 46
70.11198 47
70.13170 38
70.15142 29
70.17115 13
70.19087 4
70.21059 14
70.23031 34
70.25003 42
70.26976 43
70.28948 34
70.30920 26
70.32892 23
70.34864 23
70.36836 43
70.38808 59
70.40780 60
70.42752 48
70.44725 33
70.46697 27
70.48669 24
70.50641 24
70.52613 38
70.54586 38
70.56558 35
70.58529 21
70.60501 20
70.62474 22
70.64446 24
70.66418 28
70.68390 35
70.70362 40
70.72335 43
70.74307 42
70.76279 36
70.78251 42
70.80223 43
70.82195 38
70.84167 35
70.86139 27
70.88111 25
70.90084 19
70.92056 10
70.94028 23
70.96000 26
70.97972 27
70.99945 28
71.01917 26
71.03889 37
71.05861 43
71.07833 48
71.09805 48
71.11777 39
71.13749 33
71.15721 31
71.17694 25
71.19666 31
71.21638 35
71.23610 32
71.25582 20
71.27555 12
71.29527 10
71.31498 12
71.33470 10
71.35443 15
71.37415 21
71.39387 19
71.41359 20
71.43331 25
71.45304 30
71.47276 39
71.49248 40
71.51220 42
71.53192 44
71.55164 35
71.57136 31
71.59108 24
71.61080 22
71.63053 23
71.65025 23
71.66997 26
71.68969 27
71.70941 26
71.72914 25
71.74886 23
71.76858 29
71.78830 32
71.80802 41
71.82774 46
71.84746 54
71.86718 55
71.88690 46
71.90663 43
71.92635 37
71.94607 28
71.96579 21
71.98551 15
72.00524 10
72.02496 6
72.04467 2
72.0644  3
72.08412 13
72.10384 17
72.12356 25
72.14328 28
72.16301 22
72.18273 24
72.20245 26
72.22217 27
72.24189 40
72.26162 42
72.28133 51
72.30105 54
72.32077 46
72.3405  43
72.36022 34
72.37994 32
72.39966 29
72.41938 26
72.43911 27
72.45883 24
72.47855 20
72.49827 15
72.51799 6
72.53771 8
72.55743 4
72.57715 11
72.59687 21
72.6166  25
72.63632 37
72.65604 40
72.67576 39
72.69548 37
72.71521 33
72.73493 40
72.75465 51
72.77436 50
72.79409 47
72.81381 42
72.83353 36
72.85325 25
72.87297 19
72.8927  18
72.91242 26
72.93214 22
72.95186 14
72.97158 14
72.99131 12
73.01102 20
73.03074 21
73.05046 21
73.07019 34
73.08991 31
73.10963 31
73.12935 33
73.14907 43
73.1688  56
73.18852 53
73.20824 42
73.22796 34
73.24768 18
73.26740 17
73.28712 15
73.30684 23
73.32656 27
73.34629 25
73.36601 17
73.38573 15
73.40545 18
73.42517 34
73.44490 43
73.46462 48
73.48434 44
73.50405 30
73.52378 22
73.54350 18
73.56322 15
73.58294 24
73.60266 26
73.62239 22
73.64211 17
73.66183 12
73.68155 19
73.70127 23
73.72100 24
73.74071 24
73.76043 25
73.78015 22
73.79988 22
73.81960 21
73.83932 26
73.85904 23
73.87876 19
73.89849 26
73.91821 34
73.93793 35
73.95765 36
73.97737 30
73.99709 28
74.01681 19
74.03653 11
74.05625 17
74.07598 18
74.09570 19
74.11542 20
74.13514 17
74.15486 24
74.17459 29
74.19431 26
74.21403 30
74.23374 34
74.25347 41
74.27319 37
74.29291 33
74.31263 37
74.33235 37
74.35208 36
74.37180 40
74.39152 50
74.41124 57
74.43096 47
74.45069 37
74.47040 31
74.49012 22
74.50985 18
74.52957 22
74.54929 33
74.56901 42
74.58873 40
74.60845 31
74.62818 24
74.64790 22
74.66762 19
74.68734 21
74.70706 24
74.72678 28
74.74650 29
74.76622 22
74.78595 19
74.80567 25
74.82539 33
74.84511 38
74.86483 35
74.88456 35
74.90428 38
74.92400 29
74.94372 27
74.96344 30
74.98316 47
75.00288 56
75.02260 56
75.04232 67
75.06205 88
75.08177 115
75.10149 151
75.12121 195
75.14093 251
75.16066 294
75.18038 297
75.20009 276
75.21981 257
75.23954 222
75.25926 185
75.27898 156
75.29870 137
75.31842 142
75.33815 119
75.35787 103
75.37759 95
75.39731 83
75.41703 78
75.43675 63
75.45647 50
75.47619 48
75.49591 31
75.51564 34
75.53536 27
75.55508 41
75.57480 49
75.59452 47
75.61425 43
75.63397 36
75.65369 29
75.67340 22
75.69313 19
75.71285 25
75.73257 22
75.75229 12
75.77201 10
75.79174 12
75.81146 11
75.83118 12
75.85090 20
75.87062 20
75.89035 17
75.91007 9
75.92978 3
75.94950 4
75.96923 6
75.98895 10
76.00867 25
76.02839 31
76.04811 29
76.06784 34
76.08756 28
76.10728 32
76.12700 33
76.14672 37
76.16644 45
76.18616 39
76.20588 28
76.22560 27
76.24533 16
76.26505 10
76.28477 7
76.30449 4
76.32421 8
76.34394 6
76.36366 12
76.38338 19
76.40309 22
76.42282 23
76.44254 30
76.46226 25
76.48198 29
76.50170 24
76.52143 30
76.54115 29
76.56087 22
76.58059 15
76.60031 17
76.62004 11
76.63976 9
76.65947 2
76.67919 11
76.69892 13
76.71864 9
76.73836 10
76.75808 15
76.77780 14
76.79753 14
76.81725 10
76.83697 23
76.85669 27
76.87641 25
76.89613 30
76.91585 32
76.93557 30
76.95529 26
76.97502 25
76.99474 27
77.01446 20
77.03418 12
77.05390 11
77.07363 6
77.09335 9
77.11307 11
77.13279 15
77.15251 15
77.17223 16
77.19195 16
77.21167 18
77.2314  17
77.25112 23
77.27084 27
77.29056 34
77.31028 40
77.33000 42
77.34973 32
77.36945 28
77.38916 24
77.40889 20
77.42861 13
77.44833 20
77.46805 28
77.48777 31
77.5075  26
77.52722 23
77.54694 21
77.56666 9
77.58638 5
77.60611 16
77.62582 26
77.64554 29
77.66526 24
77.68499 17
77.70471 16
77.72443 6
77.74415 8
77.76387 19
77.7836  28
77.80332 33
77.82304 29
77.84276 27
77.86248 32
77.88220 33
77.90192 34
77.92164 34
77.94136 38
77.96109 28
77.98081 26
78.00053 22
78.02025 27
78.03997 34
78.0597  40
78.07942 37
78.09913 31
78.11885 21
78.13858 20
78.15830 18
78.17802 15
78.19774 21
78.21746 18
78.23719 22
78.25691 21
78.27663 28
78.29635 29
78.31607 28
78.3358  25
78.35551 24
78.37523 14
78.39495 16
78.41468 17
78.43440 20
78.45412 22
78.47384 21
78.49356 22
78.51329 15
78.53301 15
78.55273 19
78.57245 20
78.59217 18
78.61189 17
78.63161 22
78.65133 23
78.67105 16
78.69078 23
78.71050 22
78.73022 27
78.74994 21
78.76966 23
78.78939 31
78.80911 39
78.82882 42
78.84854 43
78.86827 37
78.88799 34
78.90771 26
78.92743 22
78.94715 24
78.96688 35
78.98660 41
79.00632 42
79.02604 38
79.04576 33
79.06549 28
79.08520 19
79.10492 23
79.12464 26
79.14437 24
79.16409 24
79.18381 24
79.20353 20
79.22325 9
79.24298 17
79.26270 32
79.28242 38
79.30214 48
79.32186 62
79.34158 58
79.36130 54
79.38102 48
79.40074 53
79.42047 54
79.44019 50
79.45991 49
79.47963 38
79.49935 20
79.51908 16
79.53880 12
79.55851 3
79.57823 6
79.59796 13
79.61768 14
79.63740 18
79.65712 34
79.67684 43
79.69657 46
79.71629 46
79.73601 46
79.75573 39
79.77545 26
79.79518 23
79.81489 31
79.83461 32
79.85434 33
79.87406 36
79.89378 28
79.91350 25
79.93322 17
79.95295 19
79.97267 27
79.99239 30
80.01211 35
80.03183 38
80.05155 30
80.07127 36
80.09099 30
80.11071 29
80.13044 28
80.15016 24
80.16988 31
80.18960 34
80.20932 33
80.22905 32
80.24877 28
80.26849 28
80.28820 31
80.30793 33
80.32765 38
80.34737 36
80.36709 37
80.38681 42
80.40654 41
80.42626 43
80.44598 39
80.46570 35
80.48542 29
80.50515 20
80.52486 23
80.54458 30
80.56430 26
80.58403 32
80.60375 28
80.62347 29
80.64319 28
80.66291 32
80.68264 33
80.70236 27
80.72208 22
80.74180 21
80.76152 17
80.78124 22
80.80096 29
80.82068 40
80.84040 57
80.86013 60
80.87985 65
80.89957 54
80.91929 48
80.93901 35
80.95874 28
80.97846 25
80.99818 35
81.01789 32
81.03762 33
81.05734 25
81.07706 21
81.09678 9
81.11650 10
81.13623 15
81.15595 25
81.17567 30
81.19539 32
81.21511 35
81.23484 33
81.25455 32
81.27427 25
81.29399 27
81.31372 31
81.33344 33
81.35316 37
81.37288 35
81.39260 33
81.41233 28
81.43205 25
81.45177 30
81.47149 32
81.49121 39
81.51093 49
81.53065 49
81.55037 45
81.57009 32
81.58982 27
81.60954 27
81.62926 30
81.64898 40
81.66870 46
81.68843 50
81.70815 49
81.72787 41
81.74758 38
81.76731 32
81.78703 31
81.80675 36
81.82647 34
81.84619 33
81.86592 29
81.88564 33
81.90536 33
81.92508 26
81.94480 21
81.96453 30
81.98424 31
82.00396 33
82.02368 37
82.04341 46
82.06313 43
82.08285 40
82.10257 36
82.12229 34
82.14202 30
82.16174 35
82.18146 45
82.20118 50
82.22090 50
82.24062 49
82.26034 40
82.28006 29
82.29978 22
82.31951 23
82.33923 27
82.35895 28
82.37867 25
82.39839 29
82.41812 21
82.43784 18
82.45756 20
82.47728 27
82.49700 28
82.51672 33
82.53644 33
82.55616 41
82.57589 40
82.59561 42
82.61533 48
82.63505 58
82.65477 52
82.6745  52
82.69422 46
82.71393 42
82.73365 42
82.75338 40
82.77310 46
82.79282 56
82.81254 48
82.83226 40
82.85199 33
82.87171 28
82.89143 28
82.91115 21
82.93087 23
82.95059 24
82.97031 23
82.99003 18
83.00975 23
83.02948 28
83.04920 37
83.06892 42
83.08864 55
83.10836 60
83.12809 67
83.14781 62
83.16753 60
83.18725 53
83.20697 52
83.22669 49
83.24641 50
83.26613 44
83.28585 41
83.30558 29
83.32530 14
83.34502 16
83.36474 25
83.38446 30
83.40419 32
83.42391 44
83.44362 49
83.46334 48
83.48307 34
83.50279 40
83.52251 37
83.54223 32
83.56195 35
83.58168 52
83.60140 55
83.62112 54
83.64084 44
83.66056 41
83.68028 25
83.70000 19
83.71972 17
83.73944 34
83.75917 37
83.77889 46
83.79861 53
83.81833 59
83.83805 44
83.85778 39
83.87750 32
83.89722 41
83.91694 38
83.93666 45
83.95638 48
83.97610 49
83.99582 33
84.01554 35
84.03527 30
84.05499 28
84.07471 27
84.09443 40
84.11415 42
84.13388 43
84.15360 36
84.17331 36
84.19303 21
84.21276 15
84.23248 13
84.25220 27
84.27192 30
84.29164 37
84.31137 41
84.33109 51
84.35081 45
84.37053 41
84.39025 41
84.40997 41
84.42969 38
84.44941 33
84.46913 37
84.48886 51
84.50858 45
84.52830 43
84.54802 52
84.56774 53
84.58747 54
84.60719 46
84.62691 42
84.64663 35
84.66635 19
84.68607 13
84.70579 14
84.72551 18
84.74523 28
84.76496 32
84.78468 41
84.80440 41
84.82412 35
84.84384 34
84.86357 32
84.88329 29
84.90300 25
84.92272 19
84.94245 19
84.96217 25
84.98189 28
85.00161 31
85.02133 34
85.04106 35
85.06078 27
85.08050 19
85.10022 20
85.11994 28
85.13966 34
85.15938 28
85.17910 31
85.19883 36
85.21855 33
85.23827 30
85.25799 30
85.27771 22
85.29744 28
85.31716 32
85.33688 36
85.35660 44
85.37632 45
85.39604 43
85.41576 29
85.43548 22
85.45520 24
85.47493 26
85.49465 31
85.51437 39
85.53409 45
85.55381 44
85.57354 31
85.59326 32
85.61298 20
85.63269 18
85.65242 26
85.67214 32
85.69186 35
85.71158 31
85.73130 27
85.75103 29
85.77075 19
85.79047 22
85.81019 24
85.82991 30
85.84964 29
85.86935 30
85.88907 33
85.90879 25
85.92852 14
85.94824 17
85.96796 20
85.98768 27
86.00740 31
86.02713 43
86.04685 46
86.06657 46
86.08629 37
86.10601 38
86.12573 36
86.14545 33
86.16517 34
86.18489 40
86.20462 45
86.22434 50
86.24406 36
86.26378 34
86.28350 25
86.30323 27
86.32295 31
86.34267 35
86.36238 35
86.38211 31
86.40183 24
86.42155 30
86.44127 28
86.46099 31
86.48072 34
86.50044 31
86.52016 30
86.53988 23
86.55960 26
86.57933 31
86.59904 32
86.61876 28
86.63848 28
86.65821 24
86.67793 21
86.69765 14
86.71737 14
86.73709 20
86.75682 24
86.77654 32
86.79626 36
86.81598 35
86.83570 34
86.85542 27
86.87514 23
86.89486 30
86.91458 34
86.93431 37
86.95403 46
86.97375 53
86.99347 63
87.01319 63
87.03292 57
87.05264 55
87.07236 46
87.09207 26
87.11180 19
87.13152 20
87.15124 24
87.17096 28
87.19068 28
87.21041 29
87.23013 23
87.24985 9
87.26957 1
87.28929 4
87.30902 7
87.32873 20
87.34845 29
87.36817 35
87.38790 36
87.40762 35
87.42734 31
87.44706 27
87.46678 22
87.48651 27
87.50623 34
87.52595 40
87.54567 45
87.56539 49
87.58511 44
87.60483 32
87.62455 20
87.64427 19
87.66400 31
87.68372 32
87.70344 34
87.72316 36
87.74288 34
87.76261 25
87.78233 20
87.80204 10
87.82177 17
87.84149 12
87.86121 11
87.88093 23
87.90065 30
87.92038 34
87.94010 32
87.95982 27
87.97954 32
87.99926 23
88.01899 27
88.03871 31
88.05842 28
88.07814 33
88.09787 39
88.11759 54
88.13731 56
88.15703 53
88.17675 59
88.19648 45
88.21620 38
88.23592 36
88.25564 42
88.27536 49
88.29508 46
88.31480 39
88.33452 33
88.35424 20
88.37397 15
88.39369 7
88.41341 8
88.43313 20
88.45285 29
88.47258 29
88.49230 24
88.51202 23
88.53173 22
88.55146 14
88.57118 11
88.59090 27
88.61062 31
88.63034 36
88.65007 31
88.66979 32
88.68951 36
88.70923 34
88.72895 26
88.74868 26
88.76840 24
88.78811 25
88.80783 17
88.82756 15
88.84728 26
88.86700 29
88.88672 31
88.90644 40
88.92617 45
88.94589 39
88.96561 24
88.98533 13
89.00505 11
89.02477 6
89.04449 11
89.06421 20
89.08393 30
89.10366 37
89.12338 35
89.14310 31
89.16282 31
89.18254 23
89.20227 21
89.22199 20
89.24171 30
89.26142 35
89.28115 41
89.30087 41
89.32059 44
89.34031 37
89.36003 36
89.37976 28
89.39948 24
89.41920 20
89.43892 22
89.45864 21
89.47837 32
89.49809 37
89.51780 43
89.53752 39
89.55725 34
89.57697 34
89.59669 31
89.61641 24
89.63613 28
89.65586 24
89.67558 23
89.69530 22
89.71502 26
89.73474 28
89.75446 25
89.77418 22
89.79390 16
89.81362 14
89.83335 14
89.85307 22
89.87279 24
89.89251 34
89.91223 40
89.93196 36
89.95168 35
89.97140 35
89.99111 35
