?
20.0     0
20.01972 0
20.03944 0
20.05916 6
20.07888 5
20.09860 10
20.11832 13
20.13805 14
20.15777 16
20.17749 14
20.19721 23
20.21693 23
20.23665 18
20.25637 13
20.27609 14
20.29582 9
20.31554 10
20.33526 11
20.35498 19
20.37470 23
20.39442 29
20.41414 28
20.43387 32
20.45359 27
20.47331 23
20.49303 22
20.51275 20
20.53247 16
20.55219 14
20.57192 17
20.59164 17
20.61136 21
20.63108 20
20.65080 28
20.67052 25
20.69024 20
20.70996 16
20.72969 24
20.74941 24
20.76913 23
20.78885 21
20.80857 32
20.82829 29
20.84801 31
20.86774 37
20.88746 38
20.90718 33
20.92690 27
20.94662 30
20.96634 35
20.98606 31
21.00578 30
21.02551 36
21.04523 31
21.06495 24
21.08467 18
21.10439 15
21.12411 17
21.14383 15
21.16356 14
21.18328 21
21.20300 16
21.22272 14
21.24244 14
21.26216 16
21.28188 21
21.30161 29
21.32133 29
21.34105 29
21.36077 30
21.38049 32
21.40021 33
21.41993 33
21.43965 30
21.45938 33
21.47910 22
21.49882 22
21.51854 18
21.53826 15
21.55798 13
21.57770 20
21.59743 28
21.61715 37
21.63687 34
21.65659 38
21.67631 27
21.69603 24
21.71575 22
21.73547 31
21.75520 35
21.77492 35
21.79464 32
21.81436 33
21.83408 31
21.85380 30
21.87352 32
21.89325 35
21.91297 34
21.93269 30
21.95241 24
21.97213 23
21.99185 20
22.01158 19
22.03130 26
22.05102 30
22.07074 39
22.09046 41
22.11018 36
22.12990 26
22.14963 19
22.16935 24
22.18907 38
22.20879 42
22.22851 48
22.24823 39
22.26795 28
22.28767 15
22.3074  18
22.32712 24
22.34684 33
22.36656 31
22.38628 34
22.40600 32
22.42572 33
22.44545 30
22.46517 32
22.48489 26
22.50461 22
22.52433 10
22.54405 21
22.56377 30
22.58349 39
22.60322 42
22.62294 43
22.64266 32
22.66238 31
22.68210 21
22.70182 35
22.72154 44
22.74127 50
22.76099 49
22.78071 40
22.80043 26
22.82015 27
22.83987 22
22.85959 32
22.87932 38
22.89904 46
22.91876 50
22.93848 48
22.95820 37
22.97792 31
22.99764 28
23.01736 21
23.03709 19
23.05681 24
23.07653 31
23.09625 28
23.11597 29
23.13569 31
23.15541 34
23.17514 32
23.19486 33
23.21458 29
23.23430 29
23.25402 26
23.27374 35
23.29346 41
23.31318 39
23.33291 44
23.35263 47
23.37235 41
23.39207 30
23.41179 21
23.43151 22
23.45123 25
23.47096 20
23.49068 21
23.51040 26
23.53012 29
23.54984 36
23.56956 38
23.58928 39
23.60900 39
23.62873 35
23.64845 24
23.66817 26
23.68789 27
23.70761 30
23.72733 23
23.74705 25
23.76678 24
23.78650 25
23.80622 21
23.82594 21
23.84566 20
23.86538 12
23.88510 16
23.90483 29
23.92455 36
23.94427 36
23.96399 37
23.98371 38
24.00343 35
24.02315 26
24.04287 29
24.06260 33
24.08232 38
24.10204 38
24.12176 43
24.14148 53
24.16120 53
24.18092 56
24.20065 60
24.22037 61
24.24009 77
24.25981 93
24.27953 103
24.29925 119
24.31897 132
24.33869 155
24.35842 179
24.37814 197
24.39786 235
24.41758 250
24.43730 246
24.45702 233
24.47674 207
24.49647 176
24.51619 135
24.53591 100
24.55563 74
24.57535 60
24.59507 47
24.61479 53
24.63452 59
24.65424 53
24.67396 51
24.69368 48
24.71340 41
24.73312 41
24.75285 29
24.77257 23
24.79229 14
24.81201 7
24.83173 14
24.85145 16
24.87117 27
24.89089 33
24.91062 37
24.93034 35
24.95006 38
24.96978 37
24.98950 34
25.00922 25
25.02894 28
25.04867 37
25.06839 52
25.08811 59
25.10783 59
25.12755 48
25.14727 39
25.16699 24
25.18671 19
25.20644 21
25.22616 29
25.24588 33
25.26560 31
25.28532 28
25.30504 33
25.32476 31
25.34449 34
25.36421 37
25.38393 40
25.40365 36
25.42337 28
25.44309 28
25.46281 31
25.48254 35
25.50226 40
25.52198 40
25.54170 33
25.56142 26
25.58114 20
25.60086 22
25.62058 23
25.64031 21
25.66003 24
25.67975 19
25.69947 17
25.71919 20
25.73891 27
25.75863 35
25.77836 44
25.79808 44
25.81780 43
25.83752 36
25.85724 35
25.87696 34
25.89668 34
25.91640 33
25.93613 30
25.95585 27
25.97557 19
25.99529 22
26.01501 32
26.03473 44
26.05445 45
26.07418 39
26.09390 20
26.11362 20
26.13334 12
26.15306 11
26.17278 21
26.19250 27
26.21223 39
26.23195 45
26.25167 44
26.27139 52
26.29111 43
26.31083 29
26.33055 19
26.35027 9
26.37000 7
26.38972 8
26.40944 19
26.42916 33
26.44888 41
26.46860 43
26.48832 46
26.50805 41
26.52777 37
26.54749 29
26.56721 30
26.58693 22
26.60665 22
26.62637 28
26.64609 36
26.66582 35
26.68554 34
26.70526 32
26.72498 36
26.74470 34
26.76442 43
26.78414 57
26.80387 58
26.82359 47
26.84331 33
26.86303 26
26.88275 28
26.90247 33
26.92219 35
26.94192 37
26.96164 37
26.98136 35
27.00108 39
27.02080 41
27.04052 44
27.06024 35
27.07996 32
27.09969 23
27.11941 25
27.13913 31
27.15885 33
27.17857 40
27.19829 37
27.21801 36
27.23774 39
27.25746 34
27.27718 32
27.29690 34
27.31662 31
27.33634 31
27.35607 35
27.37579 43
27.39551 52
27.41523 55
27.43495 48
27.45467 46
27.47439 47
27.49411 33
27.51384 32
27.53356 27
27.55328 36
27.57300 41
27.59272 43
27.61244 46
27.63216 48
27.65189 39
27.67161 33
27.69133 18
27.71105 26
27.73077 26
27.75049 33
27.77021 32
27.78994 31
27.80966 34
27.82938 35
27.84910 42
27.86882 49
27.88854 43
27.90826 39
27.92798 27
27.94771 32
27.96743 38
27.98715 45
28.00687 55
28.02659 54
28.04631 54
28.06603 42
28.08576 39
28.10548 47
28.12520 50
28.14492 49
28.16464 40
28.18436 44
28.20408 42
28.22380 32
28.24353 40
28.26325 42
28.28297 44
28.30269 49
28.32241 40
28.34213 48
28.36185 50
28.38158 55
28.4013  63
28.42102 62
28.44074 60
28.46046 57
28.48018 38
28.49990 34
28.51963 30
28.53935 37
28.55907 42
28.57879 51
28.59851 50
28.61823 38
28.63795 31
28.65767 29
28.67740 25
28.69712 34
28.71684 36
28.73656 41
28.75628 46
28.77600 39
28.79572 38
28.81545 38
28.83517 38
28.85489 36
28.87461 43
28.89433 54
28.91405 67
28.93377 69
28.95349 56
28.97322 44
28.99294 41
29.01266 30
29.03238 41
29.05210 43
29.07182 44
29.09154 56
29.11127 55
29.13099 54
29.15071 51
29.17043 32
29.19015 23
29.20987 9
29.22959 3
29.24931 25
29.26904 36
29.28876 45
29.30848 45
29.32820 36
29.34792 38
29.36764 37
29.38736 33
29.40709 49
29.42681 47
29.44653 51
29.46625 50
29.48597 49
29.50569 53
29.52541 47
29.54514 42
29.56486 41
29.58458 31
29.60430 35
29.62402 41
29.64374 50
29.66346 53
29.68318 49
29.70291 51
29.72263 46
29.74235 49
29.76207 57
29.78179 56
29.80151 54
29.82123 48
29.84096 38
29.86068 34
29.88040 35
29.90012 51
29.91984 58
29.93956 71
29.95929 78
29.97901 72
29.99873 60
30.01845 45
30.03817 43
30.05789 53
30.07761 57
30.09734 70
30.11706 65
30.13678 55
30.15650 45
30.17622 33
30.19594 39
30.21566 41
30.23538 54
30.25511 52
30.27483 47
30.29455 53
30.31427 44
30.33399 53
30.35371 56
30.37343 45
30.39316 49
30.41288 32
30.43260 22
30.45232 23
30.47204 9
30.49176 20
30.51148 28
30.53120 34
30.55093 48
30.57065 48
30.59037 43
30.61009 38
30.62981 30
30.64953 29
30.66925 37
30.68898 51
30.7087  62
30.72842 66
30.74814 60
30.76786 49
30.78758 39
30.80730 21
30.82702 20
30.84675 20
30.86647 24
30.88619 34
30.90591 38
30.92563 47
30.94535 48
30.96507 46
30.9848  48
31.00452 35
31.02424 29
31.04396 30
31.06368 35
31.08340 45
31.10312 44
31.12285 47
31.14257 37
31.16229 25
31.18201 21
31.20173 17
31.22145 25
31.24117 24
31.26089 22
31.28062 33
31.30034 33
31.32006 43
31.33978 45
31.35950 39
31.37922 37
31.39894 23
31.41867 19
31.43839 24
31.45811 32
31.47783 36
31.49755 36
31.51727 44
31.53699 45
31.55671 43
31.57644 44
31.59616 39
31.61588 34
31.63560 22
31.65532 21
31.67504 25
31.69476 27
31.71449 31
31.73421 32
31.75393 25
31.77365 16
31.79337 23
31.81309 27
31.83281 30
31.85254 31
31.87226 29
31.89198 25
31.91170 20
31.93142 24
31.95114 43
31.97086 45
31.99058 50
32.01031 47
32.03003 39
32.04975 28
32.06947 22
32.08919 21
32.10891 27
32.12863 31
32.14836 37
32.16808 39
32.18780 34
32.20752 23
32.22724 17
32.24696 16
32.26668 9
32.28641 19
32.30613 25
32.32585 32
32.34557 36
32.36529 33
32.38501 29
32.40473 31
32.42446 26
32.44418 36
32.46390 38
32.48362 40
32.50334 40
32.52306 32
32.54278 33
32.56250 31
32.58223 31
32.60195 38
32.62167 36
32.64139 31
32.66111 28
32.68083 19
32.70055 19
32.72028 20
32.74000 22
32.75972 27
32.77944 27
32.79916 25
32.81888 27
32.83860 33
32.85833 43
32.87805 57
32.89777 60
32.91749 57
32.93721 43
32.95693 29
32.97665 14
32.99638 12
33.01610 17
33.03582 36
33.05554 50
33.07526 55
33.09498 58
33.11470 57
33.13443 54
33.15415 61
33.17387 67
33.19359 91
33.21331 107
33.23303 129
33.25275 144
33.27248 158
33.29219 176
33.31192 200
33.33164 235
33.35136 284
33.37108 356
33.39080 435
33.41052 470
33.43024 498
33.44997 493
33.46969 466
33.48941 432
33.50913 395
33.52885 360
33.54857 331
33.56829 285
33.58802 236
33.60774 204
33.62746 168
33.64718 136
33.66690 111
33.68662 90
33.70634 83
33.72607 77
33.74579 59
33.76551 64
33.78523 50
33.80495 44
33.82467 33
33.84439 37
33.86412 36
33.88384 33
33.90356 25
33.92328 21
33.94300 15
33.96272 20
33.98244 20
34.00217 31
34.02188 40
34.04161 41
34.06133 33
34.08105 24
34.10077 19
34.12049 14
34.14021 11
34.15993 16
34.17966 25
34.19938 31
34.21910 31
34.23882 30
34.25854 25
34.27826 23
34.29798 21
34.31771 20
34.33743 16
34.35715 14
34.37687 13
34.39659 17
34.41631 20
34.43603 22
34.45576 28
34.47548 27
34.49520 25
34.51492 22
34.53464 22
34.55436 18
34.57408 20
34.59381 16
34.61353 16
34.63325 16
34.65297 22
34.67269 21
34.69241 23
34.71213 16
34.73186 23
34.75157 23
34.77130 16
34.79102 19
34.81074 16
34.83046 13
34.85018 8
34.86990 10
34.88962 19
34.90935 26
34.92907 31
34.94879 34
34.96851 28
34.98823 20
35.00795 14
35.02767 20
35.04740 32
35.06712 41
35.08684 58
35.10656 62
35.12628 68
35.14600 68
35.16573 64
35.18545 63
35.20517 64
35.22489 53
35.24461 52
35.26433 45
35.28405 52
35.30378 54
35.32350 50
35.34322 51
35.36294 54
35.38266 46
35.40238 45
35.42210 49
35.44183 48
35.46155 40
35.48127 37
35.50099 29
35.52071 24
35.54043 21
35.56015 29
35.57988 33
35.59959 33
35.61932 30
35.63904 36
35.65876 30
35.67848 34
35.69820 36
35.71792 30
35.73764 25
35.75737 18
35.77709 25
35.79681 35
35.81653 41
35.83625 53
35.85597 62
35.87569 62
35.89542 68
35.91514 65
35.93486 78
35.95458 90
35.97430 88
35.99402 88
36.01374 92
36.03347 79
36.05319 70
36.07291 53
36.09263 55
36.11235 68
36.13207 64
36.15179 63
36.17152 60
36.19124 50
36.21096 37
36.23068 26
36.25040 19
36.27012 27
36.28984 27
36.30957 28
36.32928 35
36.34901 42
36.36873 39
36.38845 37
36.40817 27
36.42789 25
36.44761 21
36.46733 15
36.48706 10
36.50678 11
36.52650 11
36.54622 18
36.56594 20
36.58566 24
36.60538 33
36.62511 34
36.64483 35
36.66455 35
36.68427 30
36.70399 25
36.72371 15
36.74343 13
36.76316 22
36.78288 25
36.80260 27
36.82232 29
36.84204 29
36.86176 23
36.88148 18
36.90121 23
36.92092 28
36.94065 19
36.96037 22
36.98009 22
36.99981 23
37.01953 26
37.03926 28
37.05897 28
37.07870 29
37.09842 26
37.11814 35
37.13786 28
37.15758 28
37.17730 28
37.19702 24
37.21675 18
37.23647 29
37.25619 35
37.27591 31
37.29563 31
37.31535 26
37.33507 18
37.35480 21
37.37452 29
37.39424 36
37.41396 38
37.43368 36
37.45340 45
37.47312 36
37.49285 30
37.51257 31
37.53229 30
37.55201 23
37.57173 20
37.59145 19
37.61117 21
37.63090 18
37.65062 25
37.67034 29
37.69006 34
37.70978 32
37.72950 32
37.74922 25
37.76894 20
37.78867 23
37.80839 31
37.82811 34
37.84783 34
37.86755 37
37.88728 37
37.90699 26
37.92672 28
37.94644 29
37.96616 32
37.98588 29
38.00560 31
38.02532 35
38.04504 38
38.06477 36
38.08449 39
38.10421 28
38.12393 20
38.14365 6
38.16337 0
38.18309 1
38.20282 15
38.22254 23
38.24226 35
38.26198 44
38.28170 47
38.30142 41
38.32114 32
38.34087 21
38.36059 16
38.38031 7
38.40003 10
38.41975 14
38.43947 23
38.45919 29
38.47892 36
38.49863 31
38.51836 35
38.53808 27
38.55780 23
38.57752 21
38.59724 25
38.61697 27
38.63668 25
38.65641 24
38.67613 28
38.69585 23
38.71557 17
38.73529 15
38.75501 15
38.77473 19
38.79446 12
38.81418 16
38.83390 20
38.85362 22
38.87334 22
38.89306 26
38.91278 23
38.93251 30
38.95223 24
38.97195 22
38.99167 25
39.01139 29
39.03111 31
39.05083 35
39.07056 29
39.09028 31
39.11000 22
39.12972 15
39.14944 15
39.16916 21
39.18888 26
39.20861 30
39.22832 28
39.24805 27
39.26777 20
39.28749 7
39.30721 7
39.32693 10
39.34665 15
39.36637 26
39.38610 41
39.40582 54
39.42554 54
39.44526 47
39.46498 38
39.48470 20
39.50442 3
39.52415 5
39.54387 20
39.56359 41
39.58331 56
39.60303 67
39.62275 64
39.64247 55
39.66220 36
39.68192 25
39.70164 13
39.72136 10
39.74108 16
39.76080 26
39.78052 26
39.80025 49
39.81997 54
39.83969 55
39.85941 44
39.87913 41
39.89885 38
39.91857 32
39.93830 19
39.95801 27
39.97774 18
39.99746 16
40.01718 16
40.03690 24
40.05662 22
40.07634 33
40.09606 35
40.11579 40
40.13551 34
40.15523 29
40.17495 19
40.19467 12
40.21439 9
40.23411 18
40.25384 14
40.27356 22
40.29328 24
40.31300 22
40.33272 16
40.35244 14
40.37216 16
40.39189 17
40.41161 17
40.43133 24
40.45105 25
40.47077 19
40.49049 12
40.51022 11
40.52994 9
40.54966 7
40.56938 15
40.58910 19
40.60882 16
40.62854 13
40.64827 13
40.66799 10
40.68771 13
40.70743 14
40.72715 20
40.74687 24
40.76659 21
40.78632 19
40.80603 16
40.82576 5
40.84548 6
40.86520 6
40.88492 12
40.90464 21
40.92436 31
40.94408 36
40.96381 37
40.98353 28
41.00325 16
41.02297 9
41.04269 9
41.06241 11
41.08213 23
41.10186 44
41.12158 65
41.14130 68
41.16102 72
41.18074 72
41.20046 78
41.22018 72
41.23991 75
41.25963 83
41.27935 88
41.29907 85
41.31879 93
41.33851 84
41.35823 89
41.37796 78
41.39768 67
41.4174  49
41.43712 37
41.45684 28
41.47656 17
41.49628 13
41.51601 33
41.53572 42
41.55545 41
41.57517 42
41.59489 50
41.61461 45
41.63433 27
41.65405 24
41.67377 27
41.69350 19
41.71322 4
41.73294 5
41.75266 8
41.77238 7
41.79210 2
41.81182 5
41.83155 12
41.85127 14
41.87099 13
41.89071 17
41.91043 22
41.93015 23
41.94987 17
41.96960 11
41.98932 14
42.00904 11
42.02876 12
42.04848 15
42.06820 17
42.08792 16
42.10765 11
42.12737 0
42.14709 6
42.16681 13
42.18653 18
42.20625 22
42.22597 18
42.24570 17
42.26541 9
42.28514 11
42.30486 23
42.32458 28
42.34430 25
42.36402 22
42.38374 16
42.40346 9
42.42319 6
42.44291 17
42.46263 27
42.48235 32
42.50207 37
42.52179 35
42.54151 37
42.56124 28
42.58096 28
42.60068 24
42.62040 26
42.64012 25
42.65984 27
42.67956 20
42.69929 17
42.71901 10
42.73873 17
42.75845 17
42.77817 23
42.79789 26
42.81761 28
42.83734 26
42.85706 24
42.87678 24
42.89650 29
42.91622 23
42.93594 24
42.95566 23
42.97539 24
42.99511 27
43.01483 30
43.03455 36
43.05427 39
43.07399 36
43.09371 38
43.11343 41
43.13316 36
43.15288 39
43.17260 34
43.19232 27
43.21204 25
43.23176 17
43.25148 19
43.27121 17
43.29093 15
43.31065 35
43.33037 38
43.35009 43
43.36981 51
43.38953 50
43.40926 55
43.42898 48
43.44870 56
43.46842 62
43.48814 63
43.50786 65
43.52758 80
43.54731 87
43.56703 94
43.58675 95
43.60647 123
43.62619 150
43.64591 201
43.66563 253
43.68536 337
43.70508 420
43.7248  515
43.74452 633
43.76424 808
43.78396 1069
43.80368 1527
43.82341 2540
43.84312 4623
43.86285 7464
43.88257 10146
43.90229 11999
43.92201 12905
43.94173 12795
43.96145 11597
43.98117 9630
44.0009  7617
44.02062 5760
44.04034 3862
44.06006 2163
44.07978 1073
44.09950 664
44.11922 590
44.13895 466
44.15867 305
44.17839 218
44.19811 165
44.21783 137
44.23755 95
44.25727 100
44.277   131
44.29672 129
44.31644 123
44.33616 112
44.35588 115
44.37560 93
44.39532 67
44.41505 43
44.43477 41
44.45449 42
44.47421 39
44.49393 50
44.51365 65
44.53337 69
44.55310 66
44.57281 46
44.59254 41
44.61226 32
44.63198 18
44.65170 18
44.67142 18
44.69114 25
44.71086 28
44.73059 27
44.75031 33
44.77003 33
44.78975 22
44.80947 18
44.82919 21
44.84891 27
44.86864 27
44.88836 34
44.90808 38
44.92780 35
44.94752 19
44.96724 17
44.98696 23
45.00669 19
45.02641 19
45.04613 22
45.06585 22
45.08557 19
45.10529 10
45.12501 14
45.14474 15
45.16446 10
45.18418 18
45.20390 19
45.22362 24
45.24334 30
45.26306 31
45.28279 31
45.30250 21
45.32223 13
45.34195 8
45.36167 0
45.38139 1
45.40111 8
45.42083 11
45.44055 22
45.46028 27
45.48000 34
45.49972 34
45.51944 27
45.53916 25
45.55888 18
45.57860 12
45.59833 12
45.61805 10
45.63777 8
45.65749 12
45.67721 14
45.69693 16
45.71666 13
45.73638 10
45.75610 6
45.77582 2
45.79554 0
45.81526 3
45.83498 9
45.85471 10
45.87443 10
45.89415 15
45.91387 19
45.93359 22
45.95331 19
45.97303 19
45.99276 23
46.01248 23
46.0322  20
46.05192 19
46.07164 17
46.09136 13
46.11108 8
46.13081 4
46.15052 9
46.17025 11
46.18997 11
46.20969 6
46.22941 7
46.24913 6
46.26885 13
46.28857 25
46.3083  31
46.32802 32
46.34774 31
46.36746 22
46.38718 18
46.40690 11
46.42662 8
46.44635 7
46.46607 1
46.48579 0
46.50551 7
46.52523 14
46.54495 19
46.56467 23
46.5844  25
46.60412 22
46.62384 11
46.64356 7
46.66328 9
46.68300 7
46.70272 7
46.72245 4
46.74217 9
46.76189 16
46.78161 21
46.80133 24
46.82105 23
46.84077 19
46.8605  12
46.88021 0
46.89994 0
46.91966 2
46.93938 2
46.95910 8
46.97882 10
46.99854 13
47.01826 18
47.03799 25
47.05771 28
47.07743 24
47.09715 19
47.11687 17
47.13659 8
47.15631 3
47.17604 3
47.19576 16
47.21548 23
47.23520 26
47.25492 27
47.27464 24
47.29436 19
47.31409 15
47.33381 12
47.35353 14
47.37325 21
47.39297 29
47.41269 26
47.43241 28
47.45214 27
47.47186 27
47.49158 26
47.51130 12
47.53102 26
47.55074 37
47.57046 33
47.59019 33
47.60990 26
47.62963 23
47.64935 15
47.66907 0
47.68879 8
47.70851 17
47.72823 23
47.74795 26
47.76768 29
47.78740 26
47.80712 21
47.82684 14
47.84656 13
47.86628 25
47.88600 31
47.90573 38
47.92545 41
47.94517 34
47.96489 28
47.98461 18
48.00433 7
48.02405 7
48.04378 6
48.06350 13
48.08322 24
48.10294 34
48.12266 42
48.14238 45
48.16210 41
48.18183 31
48.20155 17
48.22127 7
48.24099 7
48.26071 8
48.28043 13
48.30015 19
48.31988 20
48.3396  24
48.35932 22
48.37904 22
48.39876 28
48.41848 37
48.43821 41
48.45792 34
48.47765 30
48.49737 34
48.51709 27
48.53681 16
48.55653 17
48.57625 19
48.59597 21
48.6157  15
48.63542 17
48.65514 29
48.67486 30
48.69458 24
48.71430 20
48.73402 21
48.75375 24
48.77347 18
48.79319 19
48.81291 30
48.83263 34
48.85235 32
48.87207 25
48.8918  29
48.91152 26
48.93124 25
48.95096 28
48.97068 33
48.99040 33
49.01012 30
49.02985 28
49.04956 28
49.06929 23
49.08901 21
49.10873 25
49.12845 24
49.14817 21
49.1679  13
49.18761 22
49.20734 25
49.22706 17
49.24678 20
49.26650 26
49.28622 33
49.30594 33
49.32566 32
49.34539 47
49.36511 47
49.38483 36
49.40455 41
49.42427 28
49.44399 31
49.46371 29
49.48344 33
49.50316 35
49.52288 40
49.54260 41
49.56232 47
49.58204 45
49.60176 50
49.62149 50
49.64121 42
49.66093 27
49.68065 26
49.70037 21
49.72009 14
49.73981 15
49.75954 14
49.77925 27
49.79898 33
49.81870 36
49.83842 52
49.85814 68
49.87786 66
49.89759 67
49.91730 67
49.93703 74
49.95675 75
49.97647 68
49.99619 73
50.01591 81
50.03563 84
50.05535 81
50.07508 78
50.09480 71
50.11452 71
50.13424 61
50.15396 55
50.17368 42
50.19340 47
50.21313 42
50.23285 37
50.25257 30
50.27229 40
50.29201 48
50.31173 50
50.33145 43
50.35118 50
50.37090 55
50.39062 55
50.41034 43
50.43006 44
50.44978 38
50.46950 33
50.48923 30
50.50894 27
50.52867 36
50.54839 43
50.56811 43
50.58783 57
50.60755 65
50.62727 69
50.64699 70
50.66672 64
50.68644 62
50.70616 58
50.72588 57
50.74560 63
50.76532 70
50.78504 73
50.80477 79
50.82449 89
50.84421 107
50.86393 123
50.88365 150
50.90337 173
50.9231  196
50.94282 227
50.96254 277
50.98226 358
51.00198 475
51.02170 617
51.04142 800
51.06115 1054
51.08087 1375
51.10059 1753
51.12031 2104
51.14003 2406
51.15975 2599
51.17947 2734
51.1992  2750
51.21892 2645
51.23864 2408
51.25836 2052
51.27808 1589
51.29780 1141
51.31752 724
51.33725 474
51.35696 318
51.37669 223
51.39641 162
51.41613 124
51.43585 88
51.45557 94
51.47529 74
51.49501 74
51.51474 72
51.53446 75
51.55418 64
51.57390 69
51.59362 61
51.61334 66
51.63306 64
51.65279 57
51.67251 51
51.69223 47
51.71195 28
51.73167 19
51.75139 11
51.77111 11
51.79084 15
51.81056 10
51.83028 19
51.85000 29
51.86972 40
51.88944 43
51.90916 42
51.92889 43
51.94861 38
51.96833 34
51.98805 35
52.00777 38
52.02749 38
52.04721 30
52.06694 20
52.08665 17
52.10638 15
52.12610 19
52.14582 22
52.16554 34
52.18526 31
52.20498 32
52.22470 35
52.24443 39
52.26415 36
52.28387 29
52.30359 27
52.32331 30
52.34303 27
52.36275 31
52.38248 32
52.40220 33
52.42192 31
52.44164 25
52.46136 28
52.48108 37
52.50080 34
52.52053 34
52.54025 29
52.55997 29
52.57969 30
52.59941 25
52.61913 22
52.63885 23
52.65858 14
52.67830 17
52.69802 21
52.71774 20
52.73746 26
52.75718 29
52.77690 25
52.79663 22
52.81634 21
52.83607 22
52.85579 27
52.87551 35
52.89523 41
52.91495 42
52.93467 39
52.95439 35
52.97412 31
52.99384 20
53.01356 14
53.03328 18
53.05300 20
53.07272 24
53.09244 27
53.11217 26
53.13189 28
53.15161 29
53.17133 25
53.19105 27
53.21077 29
53.23049 30
53.25022 25
53.26994 18
53.28966 17
53.30938 17
53.32910 15
53.34882 23
53.36854 25
53.38827 32
53.40799 29
53.42771 28
53.44743 24
53.46715 18
53.48687 12
53.50659 9
53.52632 8
53.54604 7
53.56576 9
53.58548 20
53.60520 21
53.62492 25
53.64465 29
53.66436 31
53.68409 30
53.70381 26
53.72353 26
53.74325 28
53.76297 17
53.78269 16
53.80241 21
53.82214 22
53.84186 16
53.86158 16
53.88130 14
53.90102 14
53.92074 7
53.94046 11
53.96019 17
53.97991 14
53.99963 8
54.01935 15
54.03907 19
54.05879 20
54.07851 21
54.09824 31
54.11796 33
54.13768 26
54.15740 25
54.17712 28
54.19684 27
54.21656 31
54.23629 35
54.25601 38
54.27573 43
54.29545 45
54.31517 58
54.33489 54
54.35461 56
54.37434 74
54.39405 83
54.41378 92
54.43350 92
54.45322 99
54.47294 106
54.49266 100
54.51238 108
54.53210 116
54.55183 134
54.57155 146
54.59127 156
54.61099 170
54.63071 180
54.65043 175
54.67015 180
54.68988 157
54.70960 154
54.72932 142
54.74904 123
54.76876 103
54.78848 90
54.80820 68
54.82793 62
54.84765 46
54.86737 40
54.88709 42
54.90681 32
54.92653 34
54.94625 40
54.96598 38
54.98570 36
55.00542 38
55.02514 29
55.04486 33
55.06458 29
55.08430 29
55.10403 30
55.12374 21
55.14347 15
55.16319 16
55.18291 14
55.20263 9
55.22235 11
55.24207 17
55.26179 21
55.28152 18
55.30124 14
55.32096 11
55.34068 9
55.36040 12
55.38012 27
55.39984 32
55.41957 39
55.43929 35
55.45901 28
55.47873 19
55.49845 11
55.51817 11
55.53789 7
55.55762 6
55.57734 12
55.59706 9
55.61678 17
55.63650 27
55.65622 35
55.67594 37
55.69567 36
55.71539 34
55.73511 26
55.75483 15
55.77455 12
55.79427 10
55.81399 14
55.83372 11
55.85343 22
55.87316 23
55.89288 22
55.91260 20
55.93232 18
55.95204 17
55.97176 18
55.99148 11
56.01121 15
56.03093 15
56.05065 18
56.07037 21
56.09009 25
56.10981 22
56.12953 26
56.14926 31
56.16898 31
56.18870 29
56.20842 24
56.22814 22
56.24786 17
56.26759 9
56.28731 9
56.30703 16
56.32675 12
56.34647 11
56.36619 10
56.38591 16
56.40564 16
56.42536 21
56.44508 26
56.46480 38
56.48452 35
56.50424 39
56.52396 35
56.54369 34
56.56341 28
56.58313 25
56.60285 29
56.62257 29
56.64229 29
56.66201 28
56.68174 19
56.70145 16
56.72118 27
56.74090 29
56.76062 38
56.78034 36
56.80006 36
56.81978 25
56.83950 19
56.85923 12
56.87895 13
56.89867 12
56.91839 24
56.93811 31
56.95783 38
56.97755 45
56.99728 48
57.01700 43
57.03672 30
57.05644 25
57.07616 23
57.09588 18
57.11560 17
57.13533 19
57.15505 8
57.17477 14
57.19449 21
57.21421 27
57.23393 24
57.25365 22
57.27338 14
57.29310 15
57.31282 9
57.33254 16
57.35226 16
57.37198 13
57.39170 11
57.41143 13
57.43114 19
57.45087 28
57.47059 28
57.49031 26
57.51003 27
57.52975 30
57.54947 32
57.56919 32
57.58892 27
57.60864 30
57.62836 26
57.64808 20
57.66780 19
57.68752 19
57.70724 15
57.72697 9
57.74669 7
57.76641 20
57.78613 26
57.80585 30
57.82557 29
57.84529 29
57.86502 24
57.88474 18
57.90446 26
57.92418 22
57.94390 24
57.96362 30
57.98334 30
58.00307 31
58.02279 25
58.04251 22
58.06223 21
58.08195 18
58.10167 21
58.12139 22
58.14112 26
58.16083 22
58.18056 26
58.20028 35
58.22000 48
58.23972 60
58.25944 58
58.27916 58
58.29888 65
58.31861 60
58.33833 60
58.35805 53
58.37777 44
58.39749 28
58.41721 11
58.43693 4
58.45666 4
58.47638 10
58.49610 20
58.51582 21
58.53554 23
58.55526 32
58.57498 32
58.59471 31
58.61443 33
58.63415 35
58.65387 29
58.67359 23
58.69331 28
58.71303 28
58.73276 27
58.75248 35
58.77220 38
58.79192 33
58.81164 26
58.83136 27
58.85108 26
58.87081 27
58.89053 28
58.91025 34
58.92997 32
58.94969 24
58.96941 20
58.98914 18
59.00885 18
59.02858 21
59.04830 17
59.06802 25
59.08774 24
59.10746 17
59.12718 18
59.14690 25
59.16663 27
59.18635 27
59.20607 28
59.22579 33
59.24551 29
59.26523 31
59.28495 32
59.30468 29
59.32440 31
59.34412 33
59.36384 32
59.38356 32
59.40328 33
59.42300 36
59.44273 25
59.46245 26
59.48217 31
59.50189 36
59.52161 43
59.54133 45
59.56105 49
59.58078 46
59.60050 40
59.62022 34
59.63994 28
59.65966 29
59.67938 27
59.69910 19
59.71883 9
59.73854 8
59.75827 15
59.77799 17
59.79771 27
59.81743 27
59.83715 32
59.85687 32
59.87659 32
59.89632 43
59.91604 47
59.93576 50
59.95548 50
59.97520 41
59.99492 37
60.01464 35
60.03437 37
60.05409 35
60.07381 31
60.09353 34
60.11325 36
60.13297 38
60.15269 37
60.17242 41
60.19214 32
60.21186 32
60.23158 27
60.25130 29
60.27102 26
60.29074 25
60.31047 28
60.33018 28
60.34991 22
60.36963 31
60.38935 32
60.40907 31
60.42879 33
60.44852 34
60.46823 44
60.48796 44
60.50768 39
60.52740 29
60.54712 23
60.56684 12
60.58656 17
60.60628 26
60.62601 39
60.64573 45
60.66545 48
60.68517 44
60.70489 45
60.72461 37
60.74433 37
60.76406 36
60.78378 31
60.80350 20
60.82322 20
60.84294 20
60.86266 21
60.88238 20
60.90211 29
60.92183 27
60.94155 30
60.96127 27
60.98099 29
61.00071 23
61.02043 21
61.04016 17
61.05987 13
61.07960 13
61.09932 17
61.11904 25
61.13876 26
61.15848 33
61.17820 43
61.19792 45
61.21765 50
61.23737 49
61.25709 42
61.27681 36
61.29653 30
61.31625 27
61.33597 29
61.35570 32
61.37542 32
61.39514 27
61.41486 23
61.43458 18
61.45430 19
61.47403 16
61.49375 21
61.51347 27
61.53319 27
61.55291 37
61.57263 39
61.59235 40
61.61208 35
61.63180 32
61.65152 29
61.67124 26
61.69096 17
61.71068 22
61.73040 19
61.75013 17
61.76985 22
61.78957 28
61.80929 31
61.82901 43
61.84873 46
61.86845 56
61.88818 57
61.90789 50
61.92762 42
61.94734 31
61.96706 27
61.98678 28
62.00650 24
62.02623 21
62.04594 18
62.06567 12
62.08539 12
62.10511 24
62.12483 34
62.14455 35
62.16427 37
62.18399 37
62.20372 48
62.22344 48
62.24316 52
62.26288 53
62.28260 37
62.30232 28
62.32204 17
62.34177 14
62.36149 25
62.38121 21
62.40093 23
62.42065 22
62.44037 19
62.46009 27
62.47982 26
62.49954 33
62.51926 32
62.53898 27
62.55870 31
62.57842 38
62.59814 46
62.61787 48
62.63758 48
62.65731 46
62.67703 28
62.69675 22
62.71647 28
62.73619 29
62.75591 39
62.77563 42
62.79536 52
62.81508 60
62.83480 65
62.85452 72
62.87424 71
62.89396 57
62.91368 49
62.93341 38
62.95313 36
62.97285 36
62.99257 49
63.01229 52
63.03201 56
63.05173 60
63.07146 66
63.09118 70
63.11090 73
63.13062 73
63.15034 75
63.17006 65
63.18978 64
63.20951 59
63.22923 60
63.24895 61
63.26867 53
63.28839 45
63.30811 43
63.32783 38
63.34756 48
63.36727 47
63.38700 44
63.40672 47
63.42644 37
63.44616 34
63.46588 31
63.48560 28
63.50532 25
63.52505 19
63.54477 10
63.56449 21
63.58421 23
63.60393 28
63.62365 28
63.64337 17
63.66310 17
63.68282 18
63.70254 18
63.72226 22
63.74198 24
63.76170 27
63.78142 30
63.80115 31
63.82087 46
63.84059 49
63.86031 49
63.88003 36
63.89975 37
63.91947 32
63.93920 25
63.95892 20
63.97864 23
63.99836 22
64.01808 19
64.03780 12
64.05752 18
64.07724 22
64.09697 26
64.11669 33
64.13641 45
64.15613 47
64.17585 42
64.19558 41
64.21530 39
64.23502 33
64.25474 31
64.27446 27
64.29418 32
64.31390 30
64.33362 29
64.35334 46
64.37307 51
64.39279 47
64.41251 45
64.43223 36
64.45195 37
64.47168 25
64.49140 22
64.51112 29
64.53083 28
64.55056 27
64.57028 31
64.59000 34
64.60972 34
64.62944 31
64.64917 36
64.66889 37
64.68861 32
64.70833 29
64.72805 38
64.74778 31
64.76749 28
64.78721 37
64.80693 39
64.82666 39
64.84638 28
64.86610 30
64.88582 31
64.90554 20
64.92527 21
64.94499 28
64.96471 26
64.98443 23
65.00415 10
65.02387 12
65.04359 10
65.06331 17
65.08303 30
65.10276 37
65.12248 42
65.14220 38
65.16192 32
65.18164 35
65.20137 36
65.22109 37
65.24081 34
65.26052 24
65.28025 15
65.29997 12
65.31969 19
65.33941 28
65.35913 29
65.37886 27
65.39858 19
65.41830 9
65.43802 11
65.45774 20
65.47747 27
65.49718 26
65.51690 27
65.53662 28
65.55635 26
65.57607 28
65.59579 36
65.61551 38
65.63523 31
65.65496 19
65.67468 16
65.69440 14
65.71412 16
65.73384 27
65.75356 33
65.77328 38
65.79300 32
65.81272 22
65.83245 17
65.85217 19
65.87189 20
65.89161 25
65.91133 23
65.93106 18
65.95078 9
65.97049 4
65.99021 5
66.00994 11
66.02966 12
66.04938 19
66.06910 21
66.08882 20
66.10855 27
66.12827 35
66.14799 38
66.16771 33
66.18743 23
66.20716 23
66.22687 15
66.24659 11
66.26631 21
66.28604 29
66.30576 27
66.32548 24
66.34520 24
66.36492 29
66.38465 24
66.40437 20
66.42409 20
66.44381 15
66.46353 3
66.48325 0
66.50297 4
66.52269 8
66.54241 14
66.56214 17
66.58186 19
66.60158 28
66.62130 29
66.64102 29
66.66075 28
66.68047 21
66.70018 16
66.71991 10
66.73963 9
66.75935 12
66.77907 17
66.79879 18
66.81852 22
66.83824 19
66.85796 21
66.87768 26
66.89740 34
66.91713 31
66.93685 36
66.95656 34
66.97628 30
66.99601 28
67.01573 28
67.03545 30
67.05517 28
67.07489 22
67.09462 23
67.11434 29
67.13406 26
67.15378 27
67.17350 33
67.19322 32
67.21294 24
67.23266 18
67.25238 22
67.27211 33
67.29183 36
67.31155 37
67.33127 41
67.35099 38
67.37072 28
67.39044 30
67.41016 34
67.42987 39
67.4496  38
67.46932 43
67.48904 41
67.50876 38
67.52848 34
67.54821 39
67.56793 40
67.58765 38
67.60737 29
67.62709 28
67.64682 18
67.66654 8
67.68625 6
67.70597 4
67.7257  9
67.74542 14
67.76514 18
67.78486 22
67.80458 25
67.82431 27
67.84403 32
67.86375 32
67.88347 33
67.90319 37
67.92291 37
67.94263 42
67.96235 43
67.98207 41
68.00180 37
68.02152 32
68.04124 25
68.06096 22
68.08068 18
68.10041 23
68.12013 25
68.13985 21
68.15956 17
68.17929 22
68.19901 25
68.21873 23
68.23845 21
68.25817 27
68.27790 26
68.29762 22
68.31734 15
68.33706 17
68.35678 21
68.37651 23
68.39622 24
68.41594 36
68.43566 37
68.45539 37
68.47511 42
68.49483 35
68.51455 38
68.53427 41
68.55400 36
68.57372 35
68.59344 29
68.61316 26
68.63288 32
68.65260 25
68.67232 25
68.69204 31
68.71176 31
68.73149 33
68.75121 31
68.77093 29
68.79065 29
68.81037 31
68.83010 25
68.84982 28
68.86954 29
68.88925 30
68.90898 29
68.92870 26
68.94842 27
68.96814 32
68.98786 30
69.00759 24
69.02731 25
69.04703 20
69.06675 20
69.08647 23
69.10620 33
69.12591 37
69.14563 42
69.16535 35
69.18508 37
69.20480 34
69.22452 25
69.24424 25
69.26396 19
69.28369 15
69.30341 13
69.32313 9
69.34285 13
69.36257 19
69.38229 22
69.40201 26
69.42173 32
69.44146 37
69.46118 40
69.48090 46
69.50062 50
69.52034 49
69.54007 50
69.55979 42
69.57951 36
69.59923 25
69.61895 23
69.63867 25
69.65839 24
69.67811 18
69.69783 21
69.71756 21
69.73728 13
69.75700 20
69.77672 35
69.79644 46
69.81617 47
69.83589 44
69.85560 48
69.87532 45
69.89505 36
69.91477 35
69.93449 31
69.95421 23
69.97393 17
69.99366 14
70.01338 16
70.03310 13
70.05282 23
70.07254 29
70.09227 35
70.11198 33
70.13170 35
70.15142 35
70.17115 37
70.19087 39
70.21059 47
70.23031 48
70.25003 42
70.26976 35
70.28948 23
70.30920 22
70.32892 24
70.34864 32
70.36836 36
70.38808 33
70.40780 24
70.42752 25
70.44725 15
70.46697 10
70.48669 15
70.50641 19
70.52613 21
70.54586 22
70.56558 12
70.58529 25
70.60501 23
70.62474 20
70.64446 34
70.66418 36
70.68390 44
70.70362 46
70.72335 40
70.74307 48
70.76279 39
70.78251 35
70.80223 38
70.82195 36
70.84167 35
70.86139 32
70.88111 25
70.90084 21
70.92056 19
70.94028 14
70.96000 24
70.97972 32
70.99945 31
71.01917 30
71.03889 26
71.05861 30
71.07833 31
71.09805 28
71.11777 31
71.13749 32
71.15721 23
71.17694 19
71.19666 27
71.21638 39
71.23610 49
71.25582 51
71.27555 50
71.29527 49
71.31498 39
71.33470 38
71.35443 36
71.37415 31
71.39387 26
71.41359 13
71.43331 6
71.45304 2
71.47276 2
71.49248 10
71.51220 13
71.53192 20
71.55164 24
71.57136 25
71.59108 28
71.61080 28
71.63053 30
71.65025 31
71.66997 27
71.68969 31
71.70941 36
71.72914 33
71.74886 34
71.76858 28
71.78830 35
71.80802 31
71.82774 29
71.84746 28
71.86718 30
71.88690 26
71.90663 21
71.92635 18
71.94607 27
71.96579 25
71.98551 24
72.00524 17
72.02496 17
72.04467 23
72.0644  19
72.08412 21
72.10384 33
72.12356 35
72.14328 30
72.16301 25
72.18273 28
72.20245 31
72.22217 28
72.24189 28
72.26162 32
72.28133 31
72.30105 29
72.32077 27
72.3405  26
72.36022 22
72.37994 25
72.39966 18
72.41938 18
72.43911 25
72.45883 31
72.47855 31
72.49827 37
72.51799 43
72.53771 44
72.55743 33
72.57715 34
72.59687 38
72.6166  37
72.63632 35
72.65604 31
72.67576 33
72.69548 26
72.71521 16
72.73493 16
72.75465 27
72.77436 40
72.79409 48
72.81381 43
72.83353 46
72.85325 42
72.87297 38
72.8927  32
72.91242 38
72.93214 43
72.95186 43
72.97158 34
72.99131 25
73.01102 23
73.03074 22
73.05046 13
73.07019 15
73.08991 16
73.10963 19
73.12935 21
73.14907 24
73.1688  30
73.18852 29
73.20824 30
73.22796 29
73.24768 27
73.26740 21
73.28712 17
73.30684 20
73.32656 23
73.34629 22
73.36601 29
73.38573 30
73.40545 31
73.42517 26
73.44490 22
73.46462 24
73.48434 32
73.50405 34
73.52378 31
73.54350 34
73.56322 28
73.58294 25
73.60266 19
73.62239 19
73.64211 22
73.66183 28
73.68155 27
73.70127 35
73.72100 32
73.74071 28
73.76043 19
73.78015 15
73.79988 16
73.81960 22
73.83932 20
73.85904 27
73.87876 26
73.89849 21
73.91821 18
73.93793 15
73.95765 20
73.97737 24
73.99709 23
74.01681 28
74.03653 25
74.05625 22
74.07598 14
74.09570 8
74.11542 8
74.13514 11
74.15486 14
74.17459 14
74.19431 15
74.21403 21
74.23374 23
74.25347 28
74.27319 32
74.29291 31
74.31263 30
74.33235 28
74.35208 29
74.37180 30
74.39152 32
74.41124 37
74.43096 33
74.45069 26
74.47040 18
74.49012 16
74.50985 20
74.52957 25
74.54929 32
74.56901 34
74.58873 33
74.60845 27
74.62818 21
74.64790 12
74.66762 14
74.68734 23
74.70706 28
74.72678 32
74.74650 36
74.76622 27
74.78595 33
74.80567 35
74.82539 38
74.84511 40
74.86483 48
74.88456 48
74.90428 42
74.92400 42
74.94372 44
74.96344 48
74.98316 53
75.00288 51
75.02260 65
75.04232 79
75.06205 93
75.08177 127
75.10149 164
75.12121 219
75.14093 275
75.16066 347
75.18038 413
75.20009 475
75.21981 518
75.23954 567
75.25926 595
75.27898 607
75.29870 614
75.31842 609
75.33815 564
75.35787 509
75.37759 421
75.39731 330
75.41703 236
75.43675 173
75.45647 134
75.47619 119
75.49591 108
75.51564 103
75.53536 84
75.55508 66
75.57480 44
75.59452 36
75.61425 29
75.63397 36
75.65369 28
75.67340 20
75.69313 17
75.71285 18
75.73257 13
75.75229 17
75.77201 31
75.79174 31
75.81146 31
75.83118 30
75.85090 30
75.87062 34
75.89035 41
75.91007 50
75.92978 57
75.94950 52
75.96923 45
75.98895 28
76.00867 22
76.02839 23
76.04811 27
76.06784 29
76.08756 30
76.10728 30
76.12700 23
76.14672 15
76.16644 14
76.18616 12
76.20588 11
76.22560 9
76.24533 9
76.26505 7
76.28477 11
76.30449 14
76.32421 13
76.34394 14
76.36366 24
76.38338 36
76.40309 38
76.42282 41
76.44254 41
76.46226 40
76.48198 35
76.50170 32
76.52143 34
76.54115 44
76.56087 39
76.58059 34
76.60031 25
76.62004 24
76.63976 22
76.65947 17
76.67919 16
76.69892 25
76.71864 23
76.73836 21
76.75808 22
76.77780 24
76.79753 18
76.81725 16
76.83697 12
76.85669 19
76.87641 25
76.89613 31
76.91585 37
76.93557 34
76.95529 28
76.97502 31
76.99474 24
77.01446 19
77.03418 25
77.05390 26
77.07363 23
77.09335 16
77.11307 16
77.13279 20
77.15251 22
77.17223 21
77.19195 27
77.21167 24
77.2314  22
77.25112 20
77.27084 16
77.29056 10
77.31028 10
77.33000 15
77.34973 16
77.36945 21
77.38916 20
77.40889 29
77.42861 28
77.44833 22
77.46805 18
77.48777 16
77.5075  21
77.52722 28
77.54694 25
77.56666 32
77.58638 34
77.60611 35
77.62582 32
77.64554 27
77.66526 32
77.68499 28
77.70471 24
77.72443 18
77.74415 17
77.76387 17
77.7836  14
77.80332 15
77.82304 15
77.84276 13
77.86248 11
77.88220 15
77.90192 14
77.92164 22
77.94136 28
77.96109 38
77.98081 40
78.00053 30
78.02025 27
78.03997 21
78.0597  16
78.07942 20
78.09913 26
78.11885 38
78.13858 43
78.15830 37
78.17802 42
78.19774 32
78.21746 38
78.23719 42
78.25691 47
78.27663 46
78.29635 41
78.31607 31
78.3358  26
78.35551 21
78.37523 25
78.39495 28
78.41468 26
78.43440 24
78.45412 20
78.47384 20
78.49356 19
78.51329 23
78.53301 30
78.55273 41
78.57245 45
78.59217 52
78.61189 51
78.63161 40
78.65133 27
78.67105 21
78.69078 23
78.71050 31
78.73022 27
78.74994 37
78.76966 39
78.78939 27
78.80911 19
78.82882 17
78.84854 23
78.86827 26
78.88799 27
78.90771 31
78.92743 31
78.94715 20
78.96688 20
78.98660 25
79.00632 28
79.02604 29
79.04576 38
79.06549 37
79.08520 32
79.10492 25
79.12464 26
79.14437 25
79.16409 19
79.18381 29
79.20353 35
79.22325 34
79.24298 30
79.26270 31
79.28242 30
79.30214 27
79.32186 28
79.34158 34
79.36130 34
79.38102 34
79.40074 27
79.42047 21
79.44019 23
79.45991 23
79.47963 27
79.49935 35
79.51908 43
79.53880 41
79.55851 34
79.57823 19
79.59796 20
79.61768 13
79.63740 13
79.65712 20
79.67684 21
79.69657 23
79.71629 29
79.73601 24
79.75573 28
79.77545 23
79.79518 23
79.81489 26
79.83461 31
79.85434 39
79.87406 51
79.89378 54
79.91350 59
79.93322 52
79.95295 36
79.97267 33
79.99239 31
80.01211 32
80.03183 35
80.05155 35
80.07127 34
80.09099 22
80.11071 6
80.13044 3
80.15016 6
80.16988 15
80.18960 25
80.20932 30
80.22905 33
80.24877 24
80.26849 15
80.28820 17
80.30793 24
80.32765 30
80.34737 34
80.36709 38
80.38681 39
80.40654 30
80.42626 31
80.44598 37
80.46570 38
80.48542 36
80.50515 32
80.52486 33
80.54458 30
80.56430 25
80.58403 18
80.60375 17
80.62347 17
80.64319 17
80.66291 20
80.68264 21
80.70236 27
80.72208 25
80.74180 25
80.76152 22
80.78124 26
80.80096 25
80.82068 31
80.84040 28
80.86013 30
80.87985 27
80.89957 36
80.91929 35
80.93901 42
80.95874 38
80.97846 41
80.99818 33
81.01789 21
81.03762 13
81.05734 6
81.07706 10
81.09678 19
81.11650 23
81.13623 23
81.15595 26
81.17567 22
81.19539 21
81.21511 18
81.23484 27
81.25455 38
81.27427 44
81.29399 45
81.31372 46
81.33344 34
81.35316 34
81.37288 31
81.39260 29
81.41233 33
81.43205 34
81.45177 34
81.47149 34
81.49121 21
81.51093 24
81.53065 24
81.55037 19
81.57009 24
81.58982 23
81.60954 21
81.62926 24
81.64898 20
81.66870 18
81.68843 15
81.70815 14
81.72787 16
81.74758 23
81.76731 24
81.78703 26
81.80675 28
81.82647 20
81.84619 19
81.86592 25
81.88564 27
81.90536 39
81.92508 42
81.94480 39
81.96453 37
81.98424 22
82.00396 15
82.02368 12
82.04341 14
82.06313 28
82.08285 33
82.10257 35
82.12229 39
82.14202 33
82.16174 30
82.18146 22
82.20118 26
82.22090 30
82.24062 20
82.26034 19
82.28006 21
82.29978 17
82.31951 15
82.33923 19
82.35895 19
82.37867 20
82.39839 17
82.41812 20
82.43784 18
82.45756 11
82.47728 15
82.49700 19
82.51672 13
82.53644 15
82.55616 25
82.57589 28
82.59561 24
82.61533 18
82.63505 26
82.65477 27
82.6745  18
82.69422 18
82.71393 27
82.73365 25
82.75338 20
82.77310 18
82.79282 24
82.81254 22
82.83226 19
82.85199 23
82.87171 25
82.89143 16
82.91115 15
82.93087 18
82.95059 21
82.97031 25
82.99003 37
83.00975 43
83.02948 45
83.04920 40
83.06892 35
83.08864 26
83.10836 10
83.12809 13
83.14781 21
83.16753 27
83.18725 31
83.20697 33
83.22669 24
83.24641 21
83.26613 18
83.28585 24
83.30558 28
83.32530 36
83.34502 35
83.36474 36
83.38446 24
83.40419 27
83.42391 29
83.44362 27
83.46334 28
83.48307 31
83.50279 30
83.52251 27
83.54223 24
83.56195 31
83.58168 22
83.60140 29
83.62112 33
83.64084 42
83.66056 42
83.68028 40
83.70000 43
83.71972 36
83.73944 26
83.75917 26
83.77889 37
83.79861 43
83.81833 41
83.83805 41
83.85778 37
83.87750 27
83.89722 23
83.91694 26
83.93666 42
83.95638 37
83.97610 41
83.99582 39
84.01554 37
84.03527 22
84.05499 23
84.07471 33
84.09443 39
84.11415 36
84.13388 34
84.15360 27
84.17331 20
84.19303 4
84.21276 18
84.23248 27
84.25220 30
84.27192 32
84.29164 31
84.31137 28
84.33109 19
84.35081 12
84.37053 21
84.39025 29
84.40997 30
84.42969 33
84.44941 37
84.46913 38
84.48886 28
84.50858 26
84.52830 26
84.54802 29
84.56774 27
84.58747 37
84.60719 39
84.62691 40
84.64663 31
84.66635 27
84.68607 18
84.70579 17
84.72551 13
84.74523 24
84.76496 25
84.78468 23
84.80440 20
84.82412 17
84.84384 21
84.86357 31
84.88329 34
84.90300 46
84.92272 47
84.94245 47
84.96217 45
84.98189 41
85.00161 40
85.02133 28
85.04106 19
85.06078 26
85.08050 31
85.10022 38
85.11994 40
85.13966 37
85.15938 33
85.17910 19
85.19883 10
85.21855 11
85.23827 16
85.25799 24
85.27771 33
85.29744 42
85.31716 45
85.33688 40
85.35660 40
85.37632 27
85.39604 27
85.41576 29
85.43548 34
85.45520 34
85.47493 35
85.49465 37
85.51437 44
85.53409 32
85.55381 29
85.57354 22
85.59326 21
85.61298 19
85.63269 26
85.65242 31
85.67214 29
85.69186 21
85.71158 20
85.73130 17
85.75103 17
85.77075 15
85.79047 25
85.81019 40
85.82991 46
85.84964 55
85.86935 57
85.88907 51
85.90879 41
85.92852 25
85.94824 20
85.96796 19
85.98768 19
86.00740 26
86.02713 28
86.04685 35
86.06657 33
86.08629 37
86.10601 32
86.12573 27
86.14545 31
86.16517 30
86.18489 32
86.20462 29
86.22434 28
86.24406 31
86.26378 27
86.28350 21
86.30323 20
86.32295 17
86.34267 17
86.36238 13
86.38211 21
86.40183 19
86.42155 23
86.44127 23
86.46099 25
86.48072 33
86.50044 30
86.52016 29
86.53988 34
86.55960 31
86.57933 31
86.59904 34
86.61876 44
86.63848 56
86.65821 47
86.67793 44
86.69765 39
86.71737 28
86.73709 20
86.75682 13
86.77654 19
86.79626 31
86.81598 32
86.83570 36
86.85542 39
86.87514 33
86.89486 26
86.91458 17
86.93431 18
86.95403 16
86.97375 18
86.99347 22
87.01319 31
87.03292 37
87.05264 41
87.07236 36
87.09207 36
87.11180 20
87.13152 22
87.15124 24
87.17096 37
87.19068 48
87.21041 49
87.23013 42
87.24985 38
87.26957 26
87.28929 22
87.30902 17
87.32873 17
87.34845 18
87.36817 19
87.38790 22
87.40762 19
87.42734 21
87.44706 17
87.46678 19
87.48651 34
87.50623 44
87.52595 48
87.54567 53
87.56539 43
87.58511 37
87.60483 22
87.62455 29
87.64427 40
87.66400 39
87.68372 37
87.70344 39
87.72316 33
87.74288 27
87.76261 15
87.78233 18
87.80204 17
87.82177 15
87.84149 19
87.86121 22
87.88093 28
87.90065 28
87.92038 24
87.94010 31
87.95982 37
87.97954 35
87.99926 38
88.01899 33
88.03871 40
88.05842 38
88.07814 35
88.09787 36
88.11759 36
88.13731 28
88.15703 34
88.17675 33
88.19648 40
88.21620 36
88.23592 32
88.25564 30
88.27536 28
88.29508 27
88.31480 32
88.33452 27
88.35424 19
88.37397 18
88.39369 16
88.41341 23
88.43313 33
88.45285 38
88.47258 38
88.49230 31
88.51202 28
88.53173 29
88.55146 19
88.57118 16
88.59090 19
88.61062 21
88.63034 22
88.65007 19
88.66979 26
88.68951 23
88.70923 14
88.72895 17
88.74868 21
88.76840 31
88.78811 35
88.80783 31
88.82756 33
88.84728 30
88.86700 28
88.88672 30
88.90644 25
88.92617 27
88.94589 26
88.96561 17
88.98533 19
89.00505 21
89.02477 24
89.04449 18
89.06421 16
89.08393 24
89.10366 27
89.12338 28
89.14310 38
89.16282 38
89.18254 33
89.20227 25
89.22199 26
89.24171 30
89.26142 24
89.28115 27
89.30087 39
89.32059 47
89.34031 47
89.36003 46
89.37976 42
89.39948 37
89.41920 25
89.43892 23
89.45864 20
89.47837 28
89.49809 32
89.51780 36
89.53752 41
89.55725 47
89.57697 43
89.59669 37
89.61641 21
89.63613 19
89.65586 12
89.67558 17
89.69530 21
89.71502 26
89.73474 32
89.75446 36
89.77418 32
89.79390 25
89.81362 23
89.83335 29
89.85307 30
89.87279 45
89.89251 51
89.91223 53
89.93196 43
89.95168 42
89.97140 42
89.99111 42
