;content of D:\data\result\mecham\???\20231225-89741\690-02.raw - (Diffrac Plus V4 file)
_FILEVERSION = 3
_SAMPLE
_+SAMPLE
_USER = Lab Manager
_GONIOMETER_CODE = 21
_STAGE_CODE = 7
; Goniometer : D8 theta/theta, stage : Chi drive
_SAMPLE_CHANGER_CODE = 0
_ATTACHMENTS_CODE = 0
_GONIOMETER_RADIUS = 280
_MONOCHROMATOR = 0
; Incident beam monochromator : None
_BETA_FILTER = N
_ANALYZER_CODE = 0
; Received beam analyzer : None
_DATEMEASURED = 25-Dec-2023 11:03:11
_RUNTIME = 11.18979
_WL_UNIT = A
_WL1 = 1.5406
_WL2 = 1.54439
_WL3 = 1.39222
_WLRATIO = 0.5
_ANODE = Cu
_V4_INF_USER = Lab Manager
_V4_INF_CREATOR = V5Converter
_V4_INF_CREATOR_VERSION = 4.4.16.0

; Data for range 1
_DRIVE = COUPLED
_STEPTIME = 57.6
_STEPSIZE = 0.019721
_STEPMODE = C
_START = 20
_THETA = 10
_2THETA = 20
_KHI = 0
_PHI = 0
_DETECTORSLIT = out
_AUX1 = 0
_TIMESTARTED = 0
_KV = 40
_MA = 40
_RANGE_WL = 1.5406
_3DPLANE = 0
_V4_PSD2THETA = 9999
_V4_PSDCHANNEL1 = 0
_V4_PSDAPERTURE = 2.839876
_V4_PSDTYPE = 5
_V4_PSDFIXED = 0
_V4_COUNTERS_MASK = 1
_V4_DRIVES_MASK = 0
_V4_ENCODERS_MASK = 0
_2THETACOUNTS = 1
; 2THETA	Cnt2_D1	
20.000000	396.000000	
20.019721	420.000000	
20.039443	385.000000	
20.059164	350.000000	
20.078885	366.000000	
20.098607	399.000000	
20.118328	353.000000	
20.138050	361.000000	
20.157771	399.000000	
20.177492	368.000000	
20.197214	375.000000	
20.216935	398.000000	
20.236656	379.000000	
20.256378	392.000000	
20.276099	350.000000	
20.295820	369.000000	
20.315542	354.000000	
20.335263	394.000000	
20.354985	354.000000	
20.374706	388.000000	
20.394427	361.000000	
20.414149	395.000000	
20.433870	394.000000	
20.453591	405.000000	
20.473313	379.000000	
20.493034	388.000000	
20.512755	381.000000	
20.532477	384.000000	
20.552198	388.000000	
20.571920	337.000000	
20.591641	370.000000	
20.611362	379.000000	
20.631084	399.000000	
20.650805	367.000000	
20.670526	396.000000	
20.690248	348.000000	
20.709969	404.000000	
20.729690	360.000000	
20.749412	380.000000	
20.769133	394.000000	
20.788855	388.000000	
20.808576	375.000000	
20.828297	375.000000	
20.848019	416.000000	
20.867740	396.000000	
20.887461	376.000000	
20.907183	423.000000	
20.926904	397.000000	
20.946625	366.000000	
20.966347	400.000000	
20.986068	403.000000	
21.005790	393.000000	
21.025511	392.000000	
21.045232	383.000000	
21.064954	383.000000	
21.084675	409.000000	
21.104396	352.000000	
21.124118	363.000000	
21.143839	372.000000	
21.163560	368.000000	
21.183282	378.000000	
21.203003	360.000000	
21.222725	375.000000	
21.242446	357.000000	
21.262167	356.000000	
21.281889	386.000000	
21.301610	376.000000	
21.321331	373.000000	
21.341053	387.000000	
21.360774	397.000000	
21.380495	357.000000	
21.400217	409.000000	
21.419938	399.000000	
21.439660	373.000000	
21.459381	390.000000	
21.479102	384.000000	
21.498824	373.000000	
21.518545	383.000000	
21.538266	343.000000	
21.557988	373.000000	
21.577709	351.000000	
21.597430	380.000000	
21.617152	383.000000	
21.636873	402.000000	
21.656595	389.000000	
21.676316	381.000000	
21.696037	361.000000	
21.715759	399.000000	
21.735480	359.000000	
21.755201	395.000000	
21.774923	394.000000	
21.794644	394.000000	
21.814365	378.000000	
21.834087	384.000000	
21.853808	396.000000	
21.873530	382.000000	
21.893251	398.000000	
21.912972	376.000000	
21.932694	395.000000	
21.952415	385.000000	
21.972136	374.000000	
21.991858	373.000000	
22.011579	367.000000	
22.031300	385.000000	
22.051022	357.000000	
22.070743	404.000000	
22.090465	399.000000	
22.110186	378.000000	
22.129907	410.000000	
22.149629	370.000000	
22.169350	368.000000	
22.189071	371.000000	
22.208793	418.000000	
22.228514	404.000000	
22.248235	405.000000	
22.267957	375.000000	
22.287678	381.000000	
22.307400	360.000000	
22.327121	375.000000	
22.346842	389.000000	
22.366564	387.000000	
22.386285	378.000000	
22.406006	382.000000	
22.425728	385.000000	
22.445449	405.000000	
22.465170	383.000000	
22.484892	376.000000	
22.504613	347.000000	
22.524335	381.000000	
22.544056	363.000000	
22.563777	376.000000	
22.583499	348.000000	
22.603220	432.000000	
22.622941	384.000000	
22.642663	388.000000	
22.662384	406.000000	
22.682105	373.000000	
22.701827	371.000000	
22.721548	425.000000	
22.741270	383.000000	
22.760991	424.000000	
22.780712	374.000000	
22.800434	375.000000	
22.820155	390.000000	
22.839876	385.000000	
22.859598	387.000000	
22.879319	396.000000	
22.899040	392.000000	
22.918762	409.000000	
22.938483	404.000000	
22.958205	424.000000	
22.977926	403.000000	
22.997647	368.000000	
23.017369	351.000000	
23.037090	400.000000	
23.056811	383.000000	
23.076533	353.000000	
23.096254	405.000000	
23.115975	385.000000	
23.135697	377.000000	
23.155418	392.000000	
23.175140	411.000000	
23.194861	374.000000	
23.214582	388.000000	
23.234304	401.000000	
23.254025	377.000000	
23.273746	390.000000	
23.293468	401.000000	
23.313189	395.000000	
23.332910	419.000000	
23.352632	405.000000	
23.372353	381.000000	
23.392075	439.000000	
23.411796	390.000000	
23.431517	344.000000	
23.451239	385.000000	
23.470960	396.000000	
23.490681	386.000000	
23.510403	379.000000	
23.530124	369.000000	
23.549845	379.000000	
23.569567	426.000000	
23.589288	402.000000	
23.609010	404.000000	
23.628731	380.000000	
23.648452	392.000000	
23.668174	408.000000	
23.687895	384.000000	
23.707616	379.000000	
23.727338	402.000000	
23.747059	377.000000	
23.766780	372.000000	
23.786502	392.000000	
23.806223	405.000000	
23.825945	352.000000	
23.845666	379.000000	
23.865387	381.000000	
23.885109	369.000000	
23.904830	392.000000	
23.924551	365.000000	
23.944273	424.000000	
23.963994	403.000000	
23.983715	385.000000	
24.003437	393.000000	
24.023158	421.000000	
24.042880	400.000000	
24.062601	371.000000	
24.082322	409.000000	
24.102044	414.000000	
24.121765	409.000000	
24.141486	414.000000	
24.161208	420.000000	
24.180929	428.000000	
24.200650	453.000000	
24.220372	425.000000	
24.240093	453.000000	
24.259815	470.000000	
24.279536	468.000000	
24.299257	556.000000	
24.318979	514.000000	
24.338700	520.000000	
24.358421	602.000000	
24.378143	622.000000	
24.397864	661.000000	
24.417586	682.000000	
24.437307	696.000000	
24.457028	732.000000	
24.476750	654.000000	
24.496471	648.000000	
24.516192	633.000000	
24.535914	548.000000	
24.555635	502.000000	
24.575356	471.000000	
24.595078	467.000000	
24.614799	426.000000	
24.634521	465.000000	
24.654242	409.000000	
24.673963	450.000000	
24.693685	427.000000	
24.713406	388.000000	
24.733127	460.000000	
24.752849	397.000000	
24.772570	393.000000	
24.792291	387.000000	
24.812013	373.000000	
24.831734	346.000000	
24.851456	387.000000	
24.871177	393.000000	
24.890898	379.000000	
24.910620	390.000000	
24.930341	419.000000	
24.950062	400.000000	
24.969784	404.000000	
24.989505	411.000000	
25.009226	406.000000	
25.028948	384.000000	
25.048669	405.000000	
25.068391	402.000000	
25.088112	442.000000	
25.107833	362.000000	
25.127555	429.000000	
25.147276	376.000000	
25.166997	405.000000	
25.186719	405.000000	
25.206440	403.000000	
25.226161	379.000000	
25.245883	391.000000	
25.265604	402.000000	
25.285326	401.000000	
25.305047	399.000000	
25.324768	388.000000	
25.344490	405.000000	
25.364211	415.000000	
25.383932	392.000000	
25.403654	417.000000	
25.423375	409.000000	
25.443096	392.000000	
25.462818	382.000000	
25.482539	407.000000	
25.502261	429.000000	
25.521982	399.000000	
25.541703	406.000000	
25.561425	394.000000	
25.581146	382.000000	
25.600867	388.000000	
25.620589	411.000000	
25.640310	375.000000	
25.660031	382.000000	
25.679753	359.000000	
25.699474	369.000000	
25.719196	413.000000	
25.738917	367.000000	
25.758638	392.000000	
25.778360	404.000000	
25.798081	419.000000	
25.817802	413.000000	
25.837524	417.000000	
25.857245	391.000000	
25.876966	387.000000	
25.896688	425.000000	
25.916409	414.000000	
25.936131	395.000000	
25.955852	377.000000	
25.975573	393.000000	
25.995295	382.000000	
26.015016	408.000000	
26.034737	392.000000	
26.054459	413.000000	
26.074180	411.000000	
26.093901	396.000000	
26.113623	377.000000	
26.133344	368.000000	
26.153066	372.000000	
26.172787	416.000000	
26.192508	348.000000	
26.212230	383.000000	
26.231951	426.000000	
26.251672	390.000000	
26.271394	435.000000	
26.291115	408.000000	
26.310836	397.000000	
26.330558	371.000000	
26.350279	375.000000	
26.370001	351.000000	
26.389722	381.000000	
26.409443	375.000000	
26.429165	359.000000	
26.448886	401.000000	
26.468607	423.000000	
26.488329	398.000000	
26.508050	396.000000	
26.527771	406.000000	
26.547493	411.000000	
26.567214	381.000000	
26.586936	416.000000	
26.606657	365.000000	
26.626378	390.000000	
26.646100	370.000000	
26.665821	426.000000	
26.685542	411.000000	
26.705264	377.000000	
26.724985	378.000000	
26.744706	390.000000	
26.764428	439.000000	
26.784149	411.000000	
26.803871	412.000000	
26.823592	416.000000	
26.843313	375.000000	
26.863035	380.000000	
26.882756	393.000000	
26.902477	407.000000	
26.922199	392.000000	
26.941920	412.000000	
26.961641	385.000000	
26.981363	383.000000	
27.001084	400.000000	
27.020806	426.000000	
27.040527	392.000000	
27.060248	410.000000	
27.079970	392.000000	
27.099691	373.000000	
27.119412	382.000000	
27.139134	422.000000	
27.158855	369.000000	
27.178576	393.000000	
27.198298	409.000000	
27.218019	369.000000	
27.237741	421.000000	
27.257462	389.000000	
27.277183	403.000000	
27.296905	382.000000	
27.316626	387.000000	
27.336347	394.000000	
27.356069	401.000000	
27.375790	397.000000	
27.395511	384.000000	
27.415233	435.000000	
27.434954	413.000000	
27.454676	422.000000	
27.474397	389.000000	
27.494118	388.000000	
27.513840	426.000000	
27.533561	405.000000	
27.553282	357.000000	
27.573004	405.000000	
27.592725	396.000000	
27.612446	422.000000	
27.632168	400.000000	
27.651889	399.000000	
27.671611	382.000000	
27.691332	396.000000	
27.711053	386.000000	
27.730775	375.000000	
27.750496	374.000000	
27.770217	419.000000	
27.789939	355.000000	
27.809660	396.000000	
27.829381	376.000000	
27.849103	403.000000	
27.868824	407.000000	
27.888546	403.000000	
27.908267	413.000000	
27.927988	361.000000	
27.947710	391.000000	
27.967431	390.000000	
27.987152	407.000000	
28.006874	435.000000	
28.026595	390.000000	
28.046316	396.000000	
28.066038	410.000000	
28.085759	422.000000	
28.105481	405.000000	
28.125202	385.000000	
28.144923	428.000000	
28.164645	408.000000	
28.184366	398.000000	
28.204087	381.000000	
28.223809	398.000000	
28.243530	431.000000	
28.263251	371.000000	
28.282973	387.000000	
28.302694	429.000000	
28.322416	390.000000	
28.342137	401.000000	
28.361858	421.000000	
28.381580	376.000000	
28.401301	445.000000	
28.421022	434.000000	
28.440744	422.000000	
28.460465	395.000000	
28.480186	423.000000	
28.499908	403.000000	
28.519629	395.000000	
28.539351	383.000000	
28.559072	401.000000	
28.578793	397.000000	
28.598515	417.000000	
28.618236	394.000000	
28.637957	396.000000	
28.657679	362.000000	
28.677400	369.000000	
28.697121	421.000000	
28.716843	392.000000	
28.736564	370.000000	
28.756286	393.000000	
28.776007	379.000000	
28.795728	408.000000	
28.815450	418.000000	
28.835171	367.000000	
28.854892	377.000000	
28.874614	408.000000	
28.894335	411.000000	
28.914056	394.000000	
28.933778	466.000000	
28.953499	405.000000	
28.973221	399.000000	
28.992942	402.000000	
29.012663	358.000000	
29.032385	418.000000	
29.052106	423.000000	
29.071827	372.000000	
29.091549	399.000000	
29.111270	400.000000	
29.130991	424.000000	
29.150713	438.000000	
29.170434	391.000000	
29.190156	354.000000	
29.209877	361.000000	
29.229598	338.000000	
29.249320	388.000000	
29.269041	354.000000	
29.288762	384.000000	
29.308484	415.000000	
29.328205	364.000000	
29.347926	394.000000	
29.367648	380.000000	
29.387369	401.000000	
29.407091	409.000000	
29.426812	405.000000	
29.446533	376.000000	
29.466255	431.000000	
29.485976	392.000000	
29.505697	417.000000	
29.525419	410.000000	
29.545140	419.000000	
29.564861	388.000000	
29.584583	375.000000	
29.604304	419.000000	
29.624026	382.000000	
29.643747	401.000000	
29.663468	419.000000	
29.683190	410.000000	
29.702911	394.000000	
29.722632	398.000000	
29.742354	422.000000	
29.762075	416.000000	
29.781796	421.000000	
29.801518	426.000000	
29.821239	399.000000	
29.840961	391.000000	
29.860682	411.000000	
29.880403	406.000000	
29.900125	387.000000	
29.919846	422.000000	
29.939567	426.000000	
29.959289	446.000000	
29.979010	409.000000	
29.998731	468.000000	
30.018453	401.000000	
30.038174	408.000000	
30.057896	417.000000	
30.077617	424.000000	
30.097338	459.000000	
30.117060	427.000000	
30.136781	406.000000	
30.156502	399.000000	
30.176224	410.000000	
30.195945	422.000000	
30.215666	408.000000	
30.235388	410.000000	
30.255109	404.000000	
30.274831	399.000000	
30.294552	448.000000	
30.314273	371.000000	
30.333995	430.000000	
30.353716	430.000000	
30.373437	391.000000	
30.393159	445.000000	
30.412880	384.000000	
30.432601	376.000000	
30.452323	388.000000	
30.472044	373.000000	
30.491766	367.000000	
30.511487	385.000000	
30.531208	368.000000	
30.550930	398.000000	
30.570651	414.000000	
30.590372	410.000000	
30.610094	392.000000	
30.629815	382.000000	
30.649536	394.000000	
30.669258	402.000000	
30.688979	429.000000	
30.708701	403.000000	
30.728422	428.000000	
30.748143	431.000000	
30.767865	412.000000	
30.787586	415.000000	
30.807307	401.000000	
30.827029	375.000000	
30.846750	361.000000	
30.866471	381.000000	
30.886193	415.000000	
30.905914	375.000000	
30.925636	410.000000	
30.945357	393.000000	
30.965078	416.000000	
30.984800	422.000000	
31.004521	401.000000	
31.024242	409.000000	
31.043964	387.000000	
31.063685	349.000000	
31.083406	414.000000	
31.103128	440.000000	
31.122849	409.000000	
31.142571	378.000000	
31.162292	386.000000	
31.182013	410.000000	
31.201735	381.000000	
31.221456	407.000000	
31.241177	381.000000	
31.260899	365.000000	
31.280620	403.000000	
31.300341	378.000000	
31.320063	415.000000	
31.339784	423.000000	
31.359506	395.000000	
31.379227	397.000000	
31.398948	391.000000	
31.418670	407.000000	
31.438391	383.000000	
31.458112	397.000000	
31.477834	404.000000	
31.497555	403.000000	
31.517276	422.000000	
31.536998	370.000000	
31.556719	425.000000	
31.576441	442.000000	
31.596162	408.000000	
31.615883	392.000000	
31.635605	409.000000	
31.655326	393.000000	
31.675047	381.000000	
31.694769	412.000000	
31.714490	416.000000	
31.734211	376.000000	
31.753933	391.000000	
31.773654	396.000000	
31.793376	384.000000	
31.813097	383.000000	
31.832818	412.000000	
31.852540	426.000000	
31.872261	365.000000	
31.891982	393.000000	
31.911704	372.000000	
31.931425	404.000000	
31.951146	407.000000	
31.970868	415.000000	
31.990589	428.000000	
32.010311	425.000000	
32.030032	392.000000	
32.049753	416.000000	
32.069475	411.000000	
32.089196	410.000000	
32.108917	364.000000	
32.128639	420.000000	
32.148360	402.000000	
32.168081	412.000000	
32.187803	414.000000	
32.207524	399.000000	
32.227246	372.000000	
32.246967	360.000000	
32.266688	399.000000	
32.286410	399.000000	
32.306131	404.000000	
32.325852	363.000000	
32.345574	431.000000	
32.365295	395.000000	
32.385016	421.000000	
32.404738	395.000000	
32.424459	396.000000	
32.444181	409.000000	
32.463902	434.000000	
32.483623	422.000000	
32.503345	421.000000	
32.523066	399.000000	
32.542787	380.000000	
32.562509	417.000000	
32.582230	423.000000	
32.601951	440.000000	
32.621673	383.000000	
32.641394	420.000000	
32.661116	416.000000	
32.680837	402.000000	
32.700558	398.000000	
32.720280	408.000000	
32.740001	383.000000	
32.759722	405.000000	
32.779444	429.000000	
32.799165	389.000000	
32.818886	400.000000	
32.838608	401.000000	
32.858329	417.000000	
32.878051	443.000000	
32.897772	470.000000	
32.917493	428.000000	
32.937215	418.000000	
32.956936	423.000000	
32.976657	417.000000	
32.996379	408.000000	
33.016100	425.000000	
33.035821	390.000000	
33.055543	422.000000	
33.075264	450.000000	
33.094986	473.000000	
33.114707	404.000000	
33.134428	431.000000	
33.154150	467.000000	
33.173871	471.000000	
33.193592	504.000000	
33.213314	505.000000	
33.233035	491.000000	
33.252757	565.000000	
33.272478	582.000000	
33.292199	620.000000	
33.311921	596.000000	
33.331642	684.000000	
33.351363	715.000000	
33.371085	813.000000	
33.390806	906.000000	
33.410527	950.000000	
33.430249	1055.000000	
33.449970	1025.000000	
33.469692	971.000000	
33.489413	1075.000000	
33.509134	1028.000000	
33.528856	989.000000	
33.548577	915.000000	
33.568298	895.000000	
33.588020	792.000000	
33.607741	796.000000	
33.627462	707.000000	
33.647184	613.000000	
33.666905	671.000000	
33.686627	555.000000	
33.706348	541.000000	
33.726069	500.000000	
33.745791	537.000000	
33.765512	478.000000	
33.785233	462.000000	
33.804955	453.000000	
33.824676	452.000000	
33.844397	425.000000	
33.864119	460.000000	
33.883840	418.000000	
33.903562	443.000000	
33.923283	402.000000	
33.943004	382.000000	
33.962726	401.000000	
33.982447	434.000000	
34.002168	423.000000	
34.021890	416.000000	
34.041611	411.000000	
34.061332	432.000000	
34.081054	430.000000	
34.100775	406.000000	
34.120497	394.000000	
34.140218	402.000000	
34.159939	428.000000	
34.179661	406.000000	
34.199382	412.000000	
34.219103	417.000000	
34.238825	380.000000	
34.258546	412.000000	
34.278267	409.000000	
34.297989	422.000000	
34.317710	397.000000	
34.337432	432.000000	
34.357153	393.000000	
34.376874	400.000000	
34.396596	382.000000	
34.416317	413.000000	
34.436038	419.000000	
34.455760	417.000000	
34.475481	409.000000	
34.495202	373.000000	
34.514924	445.000000	
34.534645	396.000000	
34.554367	424.000000	
34.574088	400.000000	
34.593809	411.000000	
34.613531	392.000000	
34.633252	426.000000	
34.652973	379.000000	
34.672695	370.000000	
34.692416	431.000000	
34.712137	408.000000	
34.731859	385.000000	
34.751580	405.000000	
34.771302	406.000000	
34.791023	436.000000	
34.810744	373.000000	
34.830466	396.000000	
34.850187	403.000000	
34.869908	393.000000	
34.889630	414.000000	
34.909351	391.000000	
34.929072	436.000000	
34.948794	408.000000	
34.968515	425.000000	
34.988237	403.000000	
35.007958	409.000000	
35.027679	403.000000	
35.047401	412.000000	
35.067122	458.000000	
35.086843	449.000000	
35.106565	451.000000	
35.126286	424.000000	
35.146007	494.000000	
35.165729	444.000000	
35.185450	510.000000	
35.205172	461.000000	
35.224893	438.000000	
35.244614	482.000000	
35.264336	463.000000	
35.284057	448.000000	
35.303778	452.000000	
35.323500	466.000000	
35.343221	463.000000	
35.362942	443.000000	
35.382664	444.000000	
35.402385	451.000000	
35.422107	459.000000	
35.441828	436.000000	
35.461549	466.000000	
35.481271	436.000000	
35.500992	419.000000	
35.520713	412.000000	
35.540435	443.000000	
35.560156	397.000000	
35.579877	427.000000	
35.599599	430.000000	
35.619320	422.000000	
35.639042	389.000000	
35.658763	415.000000	
35.678484	430.000000	
35.698206	439.000000	
35.717927	416.000000	
35.737648	436.000000	
35.757370	395.000000	
35.777091	397.000000	
35.796812	435.000000	
35.816534	431.000000	
35.836255	483.000000	
35.855977	420.000000	
35.875698	429.000000	
35.895419	461.000000	
35.915141	491.000000	
35.934862	479.000000	
35.954583	487.000000	
35.974305	468.000000	
35.994026	521.000000	
36.013747	519.000000	
36.033469	464.000000	
36.053190	506.000000	
36.072912	475.000000	
36.092633	455.000000	
36.112354	481.000000	
36.132076	468.000000	
36.151797	516.000000	
36.171518	465.000000	
36.191240	403.000000	
36.210961	437.000000	
36.230682	453.000000	
36.250404	406.000000	
36.270125	401.000000	
36.289847	410.000000	
36.309568	379.000000	
36.329289	467.000000	
36.349011	421.000000	
36.368732	411.000000	
36.388453	423.000000	
36.408175	408.000000	
36.427896	424.000000	
36.447617	414.000000	
36.467339	387.000000	
36.487060	393.000000	
36.506782	398.000000	
36.526503	372.000000	
36.546224	398.000000	
36.565946	419.000000	
36.585667	392.000000	
36.605388	409.000000	
36.625110	384.000000	
36.644831	433.000000	
36.664552	434.000000	
36.684274	404.000000	
36.703995	410.000000	
36.723717	388.000000	
36.743438	412.000000	
36.763159	407.000000	
36.782881	404.000000	
36.802602	412.000000	
36.822323	421.000000	
36.842045	383.000000	
36.861766	401.000000	
36.881487	417.000000	
36.901209	399.000000	
36.920930	401.000000	
36.940652	404.000000	
36.960373	426.000000	
36.980094	385.000000	
36.999816	379.000000	
37.019537	430.000000	
37.039258	393.000000	
37.058980	430.000000	
37.078701	404.000000	
37.098422	384.000000	
37.118144	385.000000	
37.137865	437.000000	
37.157587	422.000000	
37.177308	413.000000	
37.197029	355.000000	
37.216751	401.000000	
37.236472	421.000000	
37.256193	417.000000	
37.275915	426.000000	
37.295636	413.000000	
37.315357	382.000000	
37.335079	350.000000	
37.354800	441.000000	
37.374522	394.000000	
37.394243	414.000000	
37.413964	434.000000	
37.433686	400.000000	
37.453407	411.000000	
37.473128	419.000000	
37.492850	423.000000	
37.512571	375.000000	
37.532292	383.000000	
37.552014	413.000000	
37.571735	409.000000	
37.591457	413.000000	
37.611178	393.000000	
37.630899	381.000000	
37.650621	406.000000	
37.670342	411.000000	
37.690063	409.000000	
37.709785	416.000000	
37.729506	395.000000	
37.749227	398.000000	
37.768949	397.000000	
37.788670	417.000000	
37.808392	392.000000	
37.828113	409.000000	
37.847834	435.000000	
37.867556	405.000000	
37.887277	403.000000	
37.906998	398.000000	
37.926720	425.000000	
37.946441	398.000000	
37.966162	407.000000	
37.985884	439.000000	
38.005605	383.000000	
38.025327	426.000000	
38.045048	389.000000	
38.064769	424.000000	
38.084491	431.000000	
38.104212	413.000000	
38.123933	390.000000	
38.143655	372.000000	
38.163376	369.000000	
38.183097	384.000000	
38.202819	382.000000	
38.222540	394.000000	
38.242262	410.000000	
38.261983	406.000000	
38.281704	399.000000	
38.301426	420.000000	
38.321147	406.000000	
38.340868	406.000000	
38.360590	396.000000	
38.380311	374.000000	
38.400032	392.000000	
38.419754	410.000000	
38.439475	377.000000	
38.459197	411.000000	
38.478918	395.000000	
38.498639	408.000000	
38.518361	402.000000	
38.538082	402.000000	
38.557803	367.000000	
38.577525	417.000000	
38.597246	396.000000	
38.616967	397.000000	
38.636689	420.000000	
38.656410	397.000000	
38.676132	401.000000	
38.695853	369.000000	
38.715574	424.000000	
38.735296	393.000000	
38.755017	348.000000	
38.774738	390.000000	
38.794460	380.000000	
38.814181	409.000000	
38.833902	397.000000	
38.853624	358.000000	
38.873345	397.000000	
38.893067	407.000000	
38.912788	401.000000	
38.932509	371.000000	
38.952231	402.000000	
38.971952	360.000000	
38.991673	433.000000	
39.011395	385.000000	
39.031116	410.000000	
39.050837	415.000000	
39.070559	404.000000	
39.090280	415.000000	
39.110002	390.000000	
39.129723	395.000000	
39.149444	397.000000	
39.169166	379.000000	
39.188887	399.000000	
39.208608	425.000000	
39.228330	408.000000	
39.248051	387.000000	
39.267772	387.000000	
39.287494	367.000000	
39.307215	411.000000	
39.326937	361.000000	
39.346658	376.000000	
39.366379	416.000000	
39.386101	397.000000	
39.405822	430.000000	
39.425543	433.000000	
39.445265	428.000000	
39.464986	405.000000	
39.484707	394.000000	
39.504429	409.000000	
39.524150	361.000000	
39.543872	400.000000	
39.563593	405.000000	
39.583314	460.000000	
39.603036	449.000000	
39.622757	448.000000	
39.642478	400.000000	
39.662200	409.000000	
39.681921	422.000000	
39.701642	444.000000	
39.721364	409.000000	
39.741085	399.000000	
39.760807	387.000000	
39.780528	421.000000	
39.800249	456.000000	
39.819971	415.000000	
39.839692	399.000000	
39.859413	474.000000	
39.879135	390.000000	
39.898856	436.000000	
39.918577	425.000000	
39.938299	430.000000	
39.958020	417.000000	
39.977742	408.000000	
39.997463	396.000000	
40.017184	413.000000	
40.036906	400.000000	
40.056627	412.000000	
40.076348	409.000000	
40.096070	415.000000	
40.115791	407.000000	
40.135512	445.000000	
40.155234	382.000000	
40.174955	416.000000	
40.194677	388.000000	
40.214398	398.000000	
40.234119	405.000000	
40.253841	411.000000	
40.273562	425.000000	
40.293283	375.000000	
40.313005	361.000000	
40.332726	422.000000	
40.352447	376.000000	
40.372169	394.000000	
40.391890	399.000000	
40.411612	399.000000	
40.431333	387.000000	
40.451054	415.000000	
40.470776	411.000000	
40.490497	391.000000	
40.510218	386.000000	
40.529940	387.000000	
40.549661	405.000000	
40.569382	417.000000	
40.589104	395.000000	
40.608825	391.000000	
40.628547	405.000000	
40.648268	388.000000	
40.667989	366.000000	
40.687711	411.000000	
40.707432	398.000000	
40.727153	385.000000	
40.746875	430.000000	
40.766596	391.000000	
40.786317	412.000000	
40.806039	406.000000	
40.825760	381.000000	
40.845482	391.000000	
40.865203	403.000000	
40.884924	330.000000	
40.904646	422.000000	
40.924367	416.000000	
40.944088	415.000000	
40.963810	424.000000	
40.983531	425.000000	
41.003252	404.000000	
41.022974	393.000000	
41.042695	396.000000	
41.062417	381.000000	
41.082138	449.000000	
41.101859	440.000000	
41.121581	426.000000	
41.141302	468.000000	
41.161023	483.000000	
41.180745	466.000000	
41.200466	441.000000	
41.220187	507.000000	
41.239909	478.000000	
41.259630	538.000000	
41.279352	493.000000	
41.299073	504.000000	
41.318794	505.000000	
41.338516	517.000000	
41.358237	523.000000	
41.377958	511.000000	
41.397680	477.000000	
41.417401	510.000000	
41.437122	450.000000	
41.456844	459.000000	
41.476565	447.000000	
41.496287	454.000000	
41.516008	436.000000	
41.535729	426.000000	
41.555451	475.000000	
41.575172	477.000000	
41.594893	417.000000	
41.614615	395.000000	
41.634336	459.000000	
41.654057	460.000000	
41.673779	380.000000	
41.693500	378.000000	
41.713222	432.000000	
41.732943	411.000000	
41.752664	418.000000	
41.772386	398.000000	
41.792107	410.000000	
41.811828	398.000000	
41.831550	413.000000	
41.851271	391.000000	
41.870992	413.000000	
41.890714	439.000000	
41.910435	386.000000	
41.930157	411.000000	
41.949878	429.000000	
41.969599	426.000000	
41.989321	391.000000	
42.009042	394.000000	
42.028763	406.000000	
42.048485	435.000000	
42.068206	429.000000	
42.087928	425.000000	
42.107649	397.000000	
42.127370	397.000000	
42.147092	418.000000	
42.166813	384.000000	
42.186534	412.000000	
42.206256	461.000000	
42.225977	416.000000	
42.245698	404.000000	
42.265420	414.000000	
42.285141	395.000000	
42.304863	437.000000	
42.324584	406.000000	
42.344305	468.000000	
42.364027	414.000000	
42.383748	403.000000	
42.403469	406.000000	
42.423191	432.000000	
42.442912	442.000000	
42.462633	408.000000	
42.482355	447.000000	
42.502076	438.000000	
42.521798	449.000000	
42.541519	442.000000	
42.561240	450.000000	
42.580962	415.000000	
42.600683	467.000000	
42.620404	435.000000	
42.640126	460.000000	
42.659847	409.000000	
42.679568	443.000000	
42.699290	408.000000	
42.719011	437.000000	
42.738733	422.000000	
42.758454	417.000000	
42.778175	445.000000	
42.797897	461.000000	
42.817618	426.000000	
42.837339	446.000000	
42.857061	422.000000	
42.876782	436.000000	
42.896503	447.000000	
42.916225	464.000000	
42.935946	438.000000	
42.955668	440.000000	
42.975389	418.000000	
42.995110	457.000000	
43.014832	460.000000	
43.034553	459.000000	
43.054274	457.000000	
43.073996	437.000000	
43.093717	464.000000	
43.113438	464.000000	
43.133160	466.000000	
43.152881	469.000000	
43.172603	455.000000	
43.192324	436.000000	
43.212045	484.000000	
43.231767	436.000000	
43.251488	426.000000	
43.271209	461.000000	
43.290931	417.000000	
43.310652	468.000000	
43.330373	450.000000	
43.350095	465.000000	
43.369816	495.000000	
43.389538	432.000000	
43.409259	486.000000	
43.428980	483.000000	
43.448702	479.000000	
43.468423	500.000000	
43.488144	491.000000	
43.507866	523.000000	
43.527587	488.000000	
43.547308	540.000000	
43.567030	519.000000	
43.586751	585.000000	
43.606473	532.000000	
43.626194	593.000000	
43.645915	625.000000	
43.665637	753.000000	
43.685358	793.000000	
43.705079	912.000000	
43.724801	973.000000	
43.744522	1180.000000	
43.764243	1368.000000	
43.783965	1722.000000	
43.803686	2244.000000	
43.823408	3113.000000	
43.843129	4589.000000	
43.862850	7117.000000	
43.882572	11077.000000	
43.902293	14961.000000	
43.922014	15340.000000	
43.941736	13541.000000	
43.961457	12910.000000	
43.981178	14003.000000	
44.000900	14555.000000	
44.020621	13243.000000	
44.040343	10196.000000	
44.060064	7784.000000	
44.079785	6901.000000	
44.099507	6231.000000	
44.119228	5220.000000	
44.138949	3507.000000	
44.158671	2196.000000	
44.178392	1478.000000	
44.198113	1124.000000	
44.217835	948.000000	
44.237556	847.000000	
44.257278	763.000000	
44.276999	696.000000	
44.296720	640.000000	
44.316442	606.000000	
44.336163	622.000000	
44.355884	567.000000	
44.375606	569.000000	
44.395327	530.000000	
44.415048	540.000000	
44.434770	506.000000	
44.454491	523.000000	
44.474213	474.000000	
44.493934	543.000000	
44.513655	514.000000	
44.533377	490.000000	
44.553098	513.000000	
44.572819	485.000000	
44.592541	465.000000	
44.612262	472.000000	
44.631983	457.000000	
44.651705	479.000000	
44.671426	453.000000	
44.691148	457.000000	
44.710869	461.000000	
44.730590	448.000000	
44.750312	467.000000	
44.770033	460.000000	
44.789754	442.000000	
44.809476	449.000000	
44.829197	437.000000	
44.848918	429.000000	
44.868640	495.000000	
44.888361	474.000000	
44.908083	445.000000	
44.927804	445.000000	
44.947525	470.000000	
44.967247	426.000000	
44.986968	428.000000	
45.006689	434.000000	
45.026411	466.000000	
45.046132	454.000000	
45.065853	438.000000	
45.085575	450.000000	
45.105296	411.000000	
45.125018	435.000000	
45.144739	429.000000	
45.164460	441.000000	
45.184182	440.000000	
45.203903	398.000000	
45.223624	436.000000	
45.243346	464.000000	
45.263067	443.000000	
45.282788	449.000000	
45.302510	456.000000	
45.322231	415.000000	
45.341953	418.000000	
45.361674	435.000000	
45.381395	429.000000	
45.401117	428.000000	
45.420838	417.000000	
45.440559	445.000000	
45.460281	437.000000	
45.480002	436.000000	
45.499723	464.000000	
45.519445	424.000000	
45.539166	440.000000	
45.558888	437.000000	
45.578609	433.000000	
45.598330	437.000000	
45.618052	413.000000	
45.637773	430.000000	
45.657494	426.000000	
45.677216	430.000000	
45.696937	420.000000	
45.716658	453.000000	
45.736380	399.000000	
45.756101	399.000000	
45.775823	394.000000	
45.795544	398.000000	
45.815265	412.000000	
45.834987	411.000000	
45.854708	397.000000	
45.874429	449.000000	
45.894151	408.000000	
45.913872	364.000000	
45.933593	423.000000	
45.953315	442.000000	
45.973036	422.000000	
45.992758	446.000000	
46.012479	403.000000	
46.032200	409.000000	
46.051922	464.000000	
46.071643	406.000000	
46.091364	415.000000	
46.111086	415.000000	
46.130807	413.000000	
46.150528	401.000000	
46.170250	445.000000	
46.189971	403.000000	
46.209693	394.000000	
46.229414	410.000000	
46.249135	402.000000	
46.268857	401.000000	
46.288578	446.000000	
46.308299	431.000000	
46.328021	441.000000	
46.347742	439.000000	
46.367463	407.000000	
46.387185	407.000000	
46.406906	434.000000	
46.426628	414.000000	
46.446349	425.000000	
46.466070	391.000000	
46.485792	383.000000	
46.505513	365.000000	
46.525234	395.000000	
46.544956	430.000000	
46.564677	442.000000	
46.584398	403.000000	
46.604120	405.000000	
46.623841	410.000000	
46.643563	406.000000	
46.663284	374.000000	
46.683005	408.000000	
46.702727	415.000000	
46.722448	405.000000	
46.742169	407.000000	
46.761891	409.000000	
46.781612	389.000000	
46.801333	434.000000	
46.821055	431.000000	
46.840776	406.000000	
46.860498	393.000000	
46.880219	386.000000	
46.899940	389.000000	
46.919662	405.000000	
46.939383	408.000000	
46.959104	404.000000	
46.978826	398.000000	
46.998547	391.000000	
47.018268	420.000000	
47.037990	394.000000	
47.057711	413.000000	
47.077433	421.000000	
47.097154	418.000000	
47.116875	385.000000	
47.136597	395.000000	
47.156318	412.000000	
47.176039	393.000000	
47.195761	402.000000	
47.215482	416.000000	
47.235203	413.000000	
47.254925	437.000000	
47.274646	401.000000	
47.294368	391.000000	
47.314089	386.000000	
47.333810	409.000000	
47.353532	414.000000	
47.373253	420.000000	
47.392974	408.000000	
47.412696	400.000000	
47.432417	437.000000	
47.452138	416.000000	
47.471860	372.000000	
47.491581	417.000000	
47.511303	403.000000	
47.531024	418.000000	
47.550745	420.000000	
47.570467	372.000000	
47.590188	480.000000	
47.609909	396.000000	
47.629631	384.000000	
47.649352	403.000000	
47.669073	378.000000	
47.688795	391.000000	
47.708516	387.000000	
47.728238	401.000000	
47.747959	428.000000	
47.767680	415.000000	
47.787402	391.000000	
47.807123	385.000000	
47.826844	399.000000	
47.846566	375.000000	
47.866287	417.000000	
47.886008	421.000000	
47.905730	373.000000	
47.925451	438.000000	
47.945173	403.000000	
47.964894	408.000000	
47.984615	384.000000	
48.004337	391.000000	
48.024058	389.000000	
48.043779	396.000000	
48.063501	402.000000	
48.083222	404.000000	
48.102943	402.000000	
48.122665	414.000000	
48.142386	430.000000	
48.162108	402.000000	
48.181829	402.000000	
48.201550	392.000000	
48.221272	379.000000	
48.240993	376.000000	
48.260714	394.000000	
48.280436	409.000000	
48.300157	405.000000	
48.319878	390.000000	
48.339600	387.000000	
48.359321	386.000000	
48.379043	383.000000	
48.398764	412.000000	
48.418485	387.000000	
48.438207	408.000000	
48.457928	425.000000	
48.477649	417.000000	
48.497371	381.000000	
48.517092	374.000000	
48.536813	420.000000	
48.556535	406.000000	
48.576256	382.000000	
48.595978	386.000000	
48.615699	409.000000	
48.635420	377.000000	
48.655142	403.000000	
48.674863	394.000000	
48.694584	392.000000	
48.714306	408.000000	
48.734027	341.000000	
48.753748	379.000000	
48.773470	392.000000	
48.793191	418.000000	
48.812913	380.000000	
48.832634	366.000000	
48.852355	420.000000	
48.872077	400.000000	
48.891798	390.000000	
48.911519	368.000000	
48.931241	388.000000	
48.950962	403.000000	
48.970683	400.000000	
48.990405	428.000000	
49.010126	393.000000	
49.029848	386.000000	
49.049569	380.000000	
49.069290	400.000000	
49.089012	408.000000	
49.108733	390.000000	
49.128454	381.000000	
49.148176	384.000000	
49.167897	411.000000	
49.187618	372.000000	
49.207340	381.000000	
49.227061	370.000000	
49.246783	434.000000	
49.266504	350.000000	
49.286225	373.000000	
49.305947	433.000000	
49.325668	382.000000	
49.345389	411.000000	
49.365111	392.000000	
49.384832	436.000000	
49.404553	392.000000	
49.424275	389.000000	
49.443996	399.000000	
49.463718	417.000000	
49.483439	349.000000	
49.503160	441.000000	
49.522882	414.000000	
49.542603	398.000000	
49.562324	401.000000	
49.582046	429.000000	
49.601767	410.000000	
49.621488	414.000000	
49.641210	430.000000	
49.660931	394.000000	
49.680653	394.000000	
49.700374	382.000000	
49.720095	390.000000	
49.739817	422.000000	
49.759538	379.000000	
49.779259	374.000000	
49.798981	408.000000	
49.818702	397.000000	
49.838423	439.000000	
49.858145	397.000000	
49.877866	429.000000	
49.897588	437.000000	
49.917309	450.000000	
49.937030	403.000000	
49.956752	454.000000	
49.976473	473.000000	
49.996194	445.000000	
50.015916	466.000000	
50.035637	451.000000	
50.055358	491.000000	
50.075080	455.000000	
50.094801	487.000000	
50.114523	421.000000	
50.134244	451.000000	
50.153965	450.000000	
50.173687	457.000000	
50.193408	434.000000	
50.213129	392.000000	
50.232851	413.000000	
50.252572	451.000000	
50.272293	415.000000	
50.292015	403.000000	
50.311736	419.000000	
50.331458	450.000000	
50.351179	415.000000	
50.370900	404.000000	
50.390622	424.000000	
50.410343	429.000000	
50.430064	420.000000	
50.449786	417.000000	
50.469507	350.000000	
50.489228	422.000000	
50.508950	391.000000	
50.528671	420.000000	
50.548393	365.000000	
50.568114	406.000000	
50.587835	441.000000	
50.607557	400.000000	
50.627278	450.000000	
50.646999	455.000000	
50.666721	436.000000	
50.686442	414.000000	
50.706163	425.000000	
50.725885	453.000000	
50.745606	435.000000	
50.765328	473.000000	
50.785049	458.000000	
50.804770	461.000000	
50.824492	472.000000	
50.844213	478.000000	
50.863934	514.000000	
50.883656	529.000000	
50.903377	581.000000	
50.923099	565.000000	
50.942820	660.000000	
50.962541	652.000000	
50.982263	741.000000	
51.001984	894.000000	
51.021705	1055.000000	
51.041427	1285.000000	
51.061148	1480.000000	
51.080869	1786.000000	
51.100591	2142.000000	
51.120312	2725.000000	
51.140034	3086.000000	
51.159755	3353.000000	
51.179476	3402.000000	
51.199198	3549.000000	
51.218919	3636.000000	
51.238640	3866.000000	
51.258362	3563.000000	
51.278083	3114.000000	
51.297804	2738.000000	
51.317526	2328.000000	
51.337247	2150.000000	
51.356969	2080.000000	
51.376690	1827.000000	
51.396411	1581.000000	
51.416133	1214.000000	
51.435854	968.000000	
51.455575	762.000000	
51.475297	698.000000	
51.495018	598.000000	
51.514739	526.000000	
51.534461	501.000000	
51.554182	498.000000	
51.573904	480.000000	
51.593625	465.000000	
51.613346	431.000000	
51.633068	465.000000	
51.652789	460.000000	
51.672510	452.000000	
51.692232	441.000000	
51.711953	393.000000	
51.731674	422.000000	
51.751396	390.000000	
51.771117	379.000000	
51.790839	390.000000	
51.810560	406.000000	
51.830281	399.000000	
51.850003	387.000000	
51.869724	398.000000	
51.889445	432.000000	
51.909167	404.000000	
51.928888	406.000000	
51.948609	390.000000	
51.968331	399.000000	
51.988052	419.000000	
52.007774	396.000000	
52.027495	436.000000	
52.047216	408.000000	
52.066938	417.000000	
52.086659	372.000000	
52.106380	382.000000	
52.126102	395.000000	
52.145823	409.000000	
52.165544	420.000000	
52.185266	400.000000	
52.204987	404.000000	
52.224709	403.000000	
52.244430	375.000000	
52.264151	429.000000	
52.283873	422.000000	
52.303594	394.000000	
52.323315	376.000000	
52.343037	398.000000	
52.362758	438.000000	
52.382479	407.000000	
52.402201	415.000000	
52.421922	399.000000	
52.441644	385.000000	
52.461365	414.000000	
52.481086	411.000000	
52.500808	369.000000	
52.520529	420.000000	
52.540250	420.000000	
52.559972	370.000000	
52.579693	416.000000	
52.599414	407.000000	
52.619136	380.000000	
52.638857	396.000000	
52.658579	394.000000	
52.678300	373.000000	
52.698021	383.000000	
52.717743	401.000000	
52.737464	410.000000	
52.757185	402.000000	
52.776907	385.000000	
52.796628	409.000000	
52.816349	383.000000	
52.836071	367.000000	
52.855792	406.000000	
52.875514	417.000000	
52.895235	412.000000	
52.914956	419.000000	
52.934678	434.000000	
52.954399	385.000000	
52.974120	398.000000	
52.993842	409.000000	
53.013563	376.000000	
53.033284	398.000000	
53.053006	387.000000	
53.072727	414.000000	
53.092449	416.000000	
53.112170	415.000000	
53.131891	395.000000	
53.151613	389.000000	
53.171334	393.000000	
53.191055	413.000000	
53.210777	411.000000	
53.230498	373.000000	
53.250219	417.000000	
53.269941	393.000000	
53.289662	399.000000	
53.309384	380.000000	
53.329105	397.000000	
53.348826	403.000000	
53.368548	394.000000	
53.388269	417.000000	
53.407990	368.000000	
53.427712	390.000000	
53.447433	399.000000	
53.467154	379.000000	
53.486876	399.000000	
53.506597	386.000000	
53.526319	364.000000	
53.546040	377.000000	
53.565761	388.000000	
53.585483	405.000000	
53.605204	378.000000	
53.624925	418.000000	
53.644647	402.000000	
53.664368	368.000000	
53.684089	415.000000	
53.703811	404.000000	
53.723532	397.000000	
53.743254	365.000000	
53.762975	410.000000	
53.782696	399.000000	
53.802418	395.000000	
53.822139	381.000000	
53.841860	415.000000	
53.861582	410.000000	
53.881303	359.000000	
53.901024	360.000000	
53.920746	399.000000	
53.940467	383.000000	
53.960189	382.000000	
53.979910	385.000000	
53.999631	411.000000	
54.019353	360.000000	
54.039074	360.000000	
54.058795	396.000000	
54.078517	421.000000	
54.098238	389.000000	
54.117959	385.000000	
54.137681	412.000000	
54.157402	409.000000	
54.177124	384.000000	
54.196845	385.000000	
54.216566	429.000000	
54.236288	407.000000	
54.256009	411.000000	
54.275730	443.000000	
54.295452	410.000000	
54.315173	419.000000	
54.334894	442.000000	
54.354616	451.000000	
54.374337	455.000000	
54.394059	413.000000	
54.413780	504.000000	
54.433501	510.000000	
54.453223	477.000000	
54.472944	486.000000	
54.492665	467.000000	
54.512387	538.000000	
54.532108	510.000000	
54.551829	529.000000	
54.571551	570.000000	
54.591272	553.000000	
54.610994	608.000000	
54.630715	567.000000	
54.650436	615.000000	
54.670158	586.000000	
54.689879	593.000000	
54.709600	559.000000	
54.729322	613.000000	
54.749043	523.000000	
54.768764	609.000000	
54.788486	532.000000	
54.808207	480.000000	
54.827929	523.000000	
54.847650	501.000000	
54.867371	472.000000	
54.887093	467.000000	
54.906814	453.000000	
54.926535	419.000000	
54.946257	461.000000	
54.965978	420.000000	
54.985699	439.000000	
55.005421	367.000000	
55.025142	397.000000	
55.044864	412.000000	
55.064585	421.000000	
55.084306	398.000000	
55.104028	416.000000	
55.123749	376.000000	
55.143470	410.000000	
55.163192	388.000000	
55.182913	347.000000	
55.202634	398.000000	
55.222356	396.000000	
55.242077	381.000000	
55.261799	361.000000	
55.281520	415.000000	
55.301241	384.000000	
55.320963	372.000000	
55.340684	327.000000	
55.360405	373.000000	
55.380127	390.000000	
55.399848	406.000000	
55.419569	423.000000	
55.439291	410.000000	
55.459012	368.000000	
55.478734	398.000000	
55.498455	331.000000	
55.518176	382.000000	
55.537898	382.000000	
55.557619	357.000000	
55.577340	396.000000	
55.597062	368.000000	
55.616783	404.000000	
55.636504	381.000000	
55.656226	380.000000	
55.675947	420.000000	
55.695669	406.000000	
55.715390	393.000000	
55.735111	367.000000	
55.754833	394.000000	
55.774554	340.000000	
55.794275	382.000000	
55.813997	356.000000	
55.833718	395.000000	
55.853439	389.000000	
55.873161	397.000000	
55.892882	377.000000	
55.912604	415.000000	
55.932325	343.000000	
55.952046	367.000000	
55.971768	381.000000	
55.991489	385.000000	
56.011210	384.000000	
56.030932	377.000000	
56.050653	333.000000	
56.070374	395.000000	
56.090096	387.000000	
56.109817	399.000000	
56.129539	378.000000	
56.149260	381.000000	
56.168981	373.000000	
56.188703	423.000000	
56.208424	397.000000	
56.228145	344.000000	
56.247867	370.000000	
56.267588	364.000000	
56.287309	401.000000	
56.307031	369.000000	
56.326752	376.000000	
56.346474	382.000000	
56.366195	386.000000	
56.385916	347.000000	
56.405638	389.000000	
56.425359	380.000000	
56.445080	381.000000	
56.464802	375.000000	
56.484523	407.000000	
56.504244	404.000000	
56.523966	405.000000	
56.543687	355.000000	
56.563409	399.000000	
56.583130	379.000000	
56.602851	411.000000	
56.622573	383.000000	
56.642294	394.000000	
56.662015	407.000000	
56.681737	377.000000	
56.701458	402.000000	
56.721179	364.000000	
56.740901	371.000000	
56.760622	404.000000	
56.780344	445.000000	
56.800065	367.000000	
56.819786	401.000000	
56.839508	341.000000	
56.859229	365.000000	
56.878950	369.000000	
56.898672	399.000000	
56.918393	371.000000	
56.938114	373.000000	
56.957836	408.000000	
56.977557	422.000000	
56.997279	388.000000	
57.017000	398.000000	
57.036721	385.000000	
57.056443	365.000000	
57.076164	379.000000	
57.095885	376.000000	
57.115607	352.000000	
57.135328	365.000000	
57.155049	372.000000	
57.174771	381.000000	
57.194492	380.000000	
57.214214	350.000000	
57.233935	425.000000	
57.253656	372.000000	
57.273378	356.000000	
57.293099	330.000000	
57.312820	368.000000	
57.332542	356.000000	
57.352263	392.000000	
57.371984	353.000000	
57.391706	378.000000	
57.411427	353.000000	
57.431149	359.000000	
57.450870	375.000000	
57.470591	384.000000	
57.490313	392.000000	
57.510034	361.000000	
57.529755	357.000000	
57.549477	379.000000	
57.569198	401.000000	
57.588919	382.000000	
57.608641	370.000000	
57.628362	364.000000	
57.648084	353.000000	
57.667805	417.000000	
57.687526	332.000000	
57.707248	347.000000	
57.726969	373.000000	
57.746690	373.000000	
57.766412	357.000000	
57.786133	365.000000	
57.805854	385.000000	
57.825576	351.000000	
57.845297	371.000000	
57.865019	360.000000	
57.884740	354.000000	
57.904461	371.000000	
57.924183	359.000000	
57.943904	378.000000	
57.963625	405.000000	
57.983347	335.000000	
58.003068	390.000000	
58.022789	395.000000	
58.042511	352.000000	
58.062232	369.000000	
58.081954	351.000000	
58.101675	376.000000	
58.121396	376.000000	
58.141118	379.000000	
58.160839	372.000000	
58.180560	336.000000	
58.200282	389.000000	
58.220003	360.000000	
58.239724	427.000000	
58.259446	412.000000	
58.279167	418.000000	
58.298889	380.000000	
58.318610	381.000000	
58.338331	433.000000	
58.358053	425.000000	
58.377774	380.000000	
58.397495	358.000000	
58.417217	362.000000	
58.436938	363.000000	
58.456659	368.000000	
58.476381	362.000000	
58.496102	376.000000	
58.515824	391.000000	
58.535545	391.000000	
58.555266	334.000000	
58.574988	339.000000	
58.594709	374.000000	
58.614430	385.000000	
58.634152	346.000000	
58.653873	379.000000	
58.673594	374.000000	
58.693316	362.000000	
58.713037	347.000000	
58.732759	396.000000	
58.752480	340.000000	
58.772201	364.000000	
58.791923	385.000000	
58.811644	383.000000	
58.831365	356.000000	
58.851087	360.000000	
58.870808	372.000000	
58.890529	371.000000	
58.910251	378.000000	
58.929972	389.000000	
58.949694	354.000000	
58.969415	384.000000	
58.989136	344.000000	
59.008858	338.000000	
59.028579	369.000000	
59.048300	379.000000	
59.068022	362.000000	
59.087743	350.000000	
59.107464	358.000000	
59.127186	380.000000	
59.146907	337.000000	
59.166629	352.000000	
59.186350	382.000000	
59.206071	371.000000	
59.225793	355.000000	
59.245514	368.000000	
59.265235	367.000000	
59.284957	374.000000	
59.304678	358.000000	
59.324399	379.000000	
59.344121	354.000000	
59.363842	373.000000	
59.383564	393.000000	
59.403285	362.000000	
59.423006	365.000000	
59.442728	373.000000	
59.462449	377.000000	
59.482170	364.000000	
59.501892	346.000000	
59.521613	406.000000	
59.541334	384.000000	
59.561056	404.000000	
59.580777	380.000000	
59.600499	362.000000	
59.620220	383.000000	
59.639941	367.000000	
59.659663	365.000000	
59.679384	341.000000	
59.699105	384.000000	
59.718827	367.000000	
59.738548	316.000000	
59.758270	339.000000	
59.777991	327.000000	
59.797712	397.000000	
59.817434	375.000000	
59.837155	355.000000	
59.856876	357.000000	
59.876598	345.000000	
59.896319	391.000000	
59.916040	365.000000	
59.935762	383.000000	
59.955483	330.000000	
59.975205	336.000000	
59.994926	382.000000	
60.014647	371.000000	
60.034369	361.000000	
60.054090	343.000000	
60.073811	399.000000	
60.093533	372.000000	
60.113254	367.000000	
60.132975	385.000000	
60.152697	389.000000	
60.172418	374.000000	
60.192140	376.000000	
60.211861	363.000000	
60.231582	369.000000	
60.251304	346.000000	
60.271025	398.000000	
60.290746	340.000000	
60.310468	383.000000	
60.330189	350.000000	
60.349910	368.000000	
60.369632	382.000000	
60.389353	351.000000	
60.409075	358.000000	
60.428796	383.000000	
60.448517	369.000000	
60.468239	348.000000	
60.487960	399.000000	
60.507681	366.000000	
60.527403	385.000000	
60.547124	347.000000	
60.566845	332.000000	
60.586567	341.000000	
60.606288	387.000000	
60.626010	362.000000	
60.645731	397.000000	
60.665452	335.000000	
60.685174	375.000000	
60.704895	329.000000	
60.724616	372.000000	
60.744338	360.000000	
60.764059	366.000000	
60.783780	356.000000	
60.803502	385.000000	
60.823223	359.000000	
60.842945	355.000000	
60.862666	343.000000	
60.882387	390.000000	
60.902109	357.000000	
60.921830	368.000000	
60.941551	358.000000	
60.961273	371.000000	
60.980994	343.000000	
61.000715	372.000000	
61.020437	343.000000	
61.040158	341.000000	
61.059880	346.000000	
61.079601	356.000000	
61.099322	340.000000	
61.119044	347.000000	
61.138765	383.000000	
61.158486	347.000000	
61.178208	386.000000	
61.197929	355.000000	
61.217650	388.000000	
61.237372	377.000000	
61.257093	364.000000	
61.276815	378.000000	
61.296536	316.000000	
61.316257	375.000000	
61.335979	357.000000	
61.355700	385.000000	
61.375421	359.000000	
61.395143	393.000000	
61.414864	361.000000	
61.434585	337.000000	
61.454307	368.000000	
61.474028	338.000000	
61.493750	358.000000	
61.513471	358.000000	
61.533192	362.000000	
61.552914	371.000000	
61.572635	378.000000	
61.592356	359.000000	
61.612078	380.000000	
61.631799	348.000000	
61.651520	351.000000	
61.671242	352.000000	
61.690963	368.000000	
61.710685	350.000000	
61.730406	351.000000	
61.750127	344.000000	
61.769849	382.000000	
61.789570	329.000000	
61.809291	363.000000	
61.829013	385.000000	
61.848734	360.000000	
61.868455	387.000000	
61.888177	409.000000	
61.907898	364.000000	
61.927620	381.000000	
61.947341	363.000000	
61.967062	339.000000	
61.986784	359.000000	
62.006505	391.000000	
62.026226	370.000000	
62.045948	355.000000	
62.065669	361.000000	
62.085390	346.000000	
62.105112	368.000000	
62.124833	361.000000	
62.144555	381.000000	
62.164276	380.000000	
62.183997	357.000000	
62.203719	360.000000	
62.223440	383.000000	
62.243161	386.000000	
62.262883	403.000000	
62.282604	340.000000	
62.302325	370.000000	
62.322047	360.000000	
62.341768	337.000000	
62.361490	379.000000	
62.381211	337.000000	
62.400932	386.000000	
62.420654	382.000000	
62.440375	351.000000	
62.460096	355.000000	
62.479818	360.000000	
62.499539	363.000000	
62.519260	361.000000	
62.538982	372.000000	
62.558703	353.000000	
62.578425	346.000000	
62.598146	385.000000	
62.617867	392.000000	
62.637589	389.000000	
62.657310	371.000000	
62.677031	356.000000	
62.696753	364.000000	
62.716474	368.000000	
62.736195	343.000000	
62.755917	390.000000	
62.775638	399.000000	
62.795360	379.000000	
62.815081	419.000000	
62.834802	391.000000	
62.854524	419.000000	
62.874245	396.000000	
62.893966	413.000000	
62.913688	365.000000	
62.933409	378.000000	
62.953130	377.000000	
62.972852	382.000000	
62.992573	403.000000	
63.012295	401.000000	
63.032016	425.000000	
63.051737	419.000000	
63.071459	403.000000	
63.091180	416.000000	
63.110901	411.000000	
63.130623	417.000000	
63.150344	415.000000	
63.170065	409.000000	
63.189787	405.000000	
63.209508	419.000000	
63.229230	394.000000	
63.248951	424.000000	
63.268672	402.000000	
63.288394	425.000000	
63.308115	395.000000	
63.327836	373.000000	
63.347558	400.000000	
63.367279	409.000000	
63.387000	410.000000	
63.406722	402.000000	
63.426443	369.000000	
63.446165	363.000000	
63.465886	417.000000	
63.485607	354.000000	
63.505329	369.000000	
63.525050	355.000000	
63.544771	341.000000	
63.564493	348.000000	
63.584214	388.000000	
63.603935	348.000000	
63.623657	385.000000	
63.643378	357.000000	
63.663100	341.000000	
63.682821	322.000000	
63.702542	332.000000	
63.722264	394.000000	
63.741985	332.000000	
63.761706	359.000000	
63.781428	331.000000	
63.801149	400.000000	
63.820870	364.000000	
63.840592	384.000000	
63.860313	373.000000	
63.880035	368.000000	
63.899756	383.000000	
63.919477	355.000000	
63.939199	344.000000	
63.958920	388.000000	
63.978641	347.000000	
63.998363	348.000000	
64.018084	374.000000	
64.037805	383.000000	
64.057527	352.000000	
64.077248	342.000000	
64.096970	356.000000	
64.116691	369.000000	
64.136412	407.000000	
64.156134	365.000000	
64.175855	371.000000	
64.195576	372.000000	
64.215298	361.000000	
64.235019	364.000000	
64.254740	382.000000	
64.274462	352.000000	
64.294183	346.000000	
64.313905	395.000000	
64.333626	368.000000	
64.353347	407.000000	
64.373069	327.000000	
64.392790	384.000000	
64.412511	415.000000	
64.432233	363.000000	
64.451954	366.000000	
64.471675	348.000000	
64.491397	372.000000	
64.511118	370.000000	
64.530840	355.000000	
64.550561	385.000000	
64.570282	344.000000	
64.590004	385.000000	
64.609725	363.000000	
64.629446	388.000000	
64.649168	356.000000	
64.668889	358.000000	
64.688610	391.000000	
64.708332	362.000000	
64.728053	367.000000	
64.747775	356.000000	
64.767496	379.000000	
64.787217	386.000000	
64.806939	345.000000	
64.826660	396.000000	
64.846381	381.000000	
64.866103	358.000000	
64.885824	364.000000	
64.905545	343.000000	
64.925267	390.000000	
64.944988	346.000000	
64.964710	369.000000	
64.984431	356.000000	
65.004152	371.000000	
65.023874	350.000000	
65.043595	337.000000	
65.063316	331.000000	
65.083038	368.000000	
65.102759	387.000000	
65.122480	385.000000	
65.142202	371.000000	
65.161923	348.000000	
65.181645	372.000000	
65.201366	352.000000	
65.221087	377.000000	
65.240809	370.000000	
65.260530	352.000000	
65.280251	322.000000	
65.299973	337.000000	
65.319694	360.000000	
65.339415	355.000000	
65.359137	391.000000	
65.378858	366.000000	
65.398580	349.000000	
65.418301	328.000000	
65.438022	347.000000	
65.457744	334.000000	
65.477465	350.000000	
65.497186	388.000000	
65.516908	348.000000	
65.536629	352.000000	
65.556350	357.000000	
65.576072	373.000000	
65.595793	357.000000	
65.615515	366.000000	
65.635236	361.000000	
65.654957	346.000000	
65.674679	366.000000	
65.694400	328.000000	
65.714121	342.000000	
65.733843	361.000000	
65.753564	365.000000	
65.773285	378.000000	
65.793007	390.000000	
65.812728	353.000000	
65.832450	348.000000	
65.852171	313.000000	
65.871892	339.000000	
65.891614	365.000000	
65.911335	379.000000	
65.931056	337.000000	
65.950778	321.000000	
65.970499	333.000000	
65.990220	333.000000	
66.009942	346.000000	
66.029663	346.000000	
66.049385	337.000000	
66.069106	342.000000	
66.088827	360.000000	
66.108549	375.000000	
66.128270	336.000000	
66.147991	354.000000	
66.167713	371.000000	
66.187434	351.000000	
66.207155	339.000000	
66.226877	331.000000	
66.246598	335.000000	
66.266320	362.000000	
66.286041	347.000000	
66.305762	363.000000	
66.325484	379.000000	
66.345205	353.000000	
66.364926	332.000000	
66.384648	365.000000	
66.404369	360.000000	
66.424090	339.000000	
66.443812	330.000000	
66.463533	332.000000	
66.483255	326.000000	
66.502976	339.000000	
66.522697	326.000000	
66.542419	339.000000	
66.562140	350.000000	
66.581861	321.000000	
66.601583	357.000000	
66.621304	333.000000	
66.641025	353.000000	
66.660747	371.000000	
66.680468	324.000000	
66.700190	325.000000	
66.719911	331.000000	
66.739632	314.000000	
66.759354	349.000000	
66.779075	344.000000	
66.798796	344.000000	
66.818518	330.000000	
66.838239	378.000000	
66.857960	340.000000	
66.877682	351.000000	
66.897403	337.000000	
66.917125	353.000000	
66.936846	365.000000	
66.956567	364.000000	
66.976289	336.000000	
66.996010	354.000000	
67.015731	351.000000	
67.035453	344.000000	
67.055174	372.000000	
67.074895	351.000000	
67.094617	341.000000	
67.114338	341.000000	
67.134060	366.000000	
67.153781	372.000000	
67.173502	368.000000	
67.193224	333.000000	
67.212945	342.000000	
67.232666	374.000000	
67.252388	339.000000	
67.272109	344.000000	
67.291830	351.000000	
67.311552	376.000000	
67.331273	375.000000	
67.350995	364.000000	
67.370716	352.000000	
67.390437	342.000000	
67.410159	355.000000	
67.429880	356.000000	
67.449601	392.000000	
67.469323	348.000000	
67.489044	364.000000	
67.508765	364.000000	
67.528487	391.000000	
67.548208	345.000000	
67.567930	361.000000	
67.587651	365.000000	
67.607372	355.000000	
67.627094	367.000000	
67.646815	346.000000	
67.666536	328.000000	
67.686258	337.000000	
67.705979	299.000000	
67.725700	324.000000	
67.745422	349.000000	
67.765143	341.000000	
67.784865	352.000000	
67.804586	352.000000	
67.824307	342.000000	
67.844029	337.000000	
67.863750	351.000000	
67.883471	354.000000	
67.903193	336.000000	
67.922914	341.000000	
67.942635	361.000000	
67.962357	361.000000	
67.982078	362.000000	
68.001800	375.000000	
68.021521	329.000000	
68.041242	338.000000	
68.060964	361.000000	
68.080685	351.000000	
68.100406	318.000000	
68.120128	349.000000	
68.139849	343.000000	
68.159570	359.000000	
68.179292	354.000000	
68.199013	330.000000	
68.218735	330.000000	
68.238456	369.000000	
68.258177	340.000000	
68.277899	318.000000	
68.297620	346.000000	
68.317341	348.000000	
68.337063	314.000000	
68.356784	343.000000	
68.376505	308.000000	
68.396227	338.000000	
68.415948	360.000000	
68.435670	363.000000	
68.455391	330.000000	
68.475112	373.000000	
68.494834	342.000000	
68.514555	355.000000	
68.534276	361.000000	
68.553998	314.000000	
68.573719	377.000000	
68.593441	354.000000	
68.613162	341.000000	
68.632883	329.000000	
68.652605	354.000000	
68.672326	310.000000	
68.692047	355.000000	
68.711769	340.000000	
68.731490	344.000000	
68.751211	357.000000	
68.770933	358.000000	
68.790654	365.000000	
68.810376	313.000000	
68.830097	335.000000	
68.849818	349.000000	
68.869540	367.000000	
68.889261	331.000000	
68.908982	347.000000	
68.928704	336.000000	
68.948425	339.000000	
68.968146	363.000000	
68.987868	340.000000	
69.007589	347.000000	
69.027311	328.000000	
69.047032	334.000000	
69.066753	327.000000	
69.086475	356.000000	
69.106196	340.000000	
69.125917	339.000000	
69.145639	370.000000	
69.165360	359.000000	
69.185081	339.000000	
69.204803	357.000000	
69.224524	323.000000	
69.244246	345.000000	
69.263967	326.000000	
69.283688	316.000000	
69.303410	329.000000	
69.323131	295.000000	
69.342852	351.000000	
69.362574	331.000000	
69.382295	338.000000	
69.402016	349.000000	
69.421738	335.000000	
69.441459	351.000000	
69.461181	348.000000	
69.480902	366.000000	
69.500623	341.000000	
69.520345	351.000000	
69.540066	364.000000	
69.559787	345.000000	
69.579509	347.000000	
69.599230	355.000000	
69.618951	312.000000	
69.638673	332.000000	
69.658394	344.000000	
69.678116	374.000000	
69.697837	334.000000	
69.717558	329.000000	
69.737280	307.000000	
69.757001	359.000000	
69.776722	357.000000	
69.796444	331.000000	
69.816165	386.000000	
69.835886	353.000000	
69.855608	345.000000	
69.875329	348.000000	
69.895051	362.000000	
69.914772	351.000000	
69.934493	310.000000	
69.954215	353.000000	
69.973936	321.000000	
69.993657	323.000000	
70.013379	329.000000	
70.033100	351.000000	
70.052821	326.000000	
70.072543	334.000000	
70.092264	354.000000	
70.111986	382.000000	
70.131707	339.000000	
70.151428	338.000000	
70.171150	319.000000	
70.190871	354.000000	
70.210592	361.000000	
70.230314	361.000000	
70.250035	348.000000	
70.269756	340.000000	
70.289478	329.000000	
70.309199	346.000000	
70.328921	353.000000	
70.348642	312.000000	
70.368363	365.000000	
70.388085	353.000000	
70.407806	363.000000	
70.427527	331.000000	
70.447249	318.000000	
70.466970	299.000000	
70.486691	351.000000	
70.506413	303.000000	
70.526134	318.000000	
70.545856	353.000000	
70.565577	320.000000	
70.585298	344.000000	
70.605020	336.000000	
70.624741	310.000000	
70.644462	372.000000	
70.664184	297.000000	
70.683905	367.000000	
70.703626	367.000000	
70.723348	327.000000	
70.743069	369.000000	
70.762791	335.000000	
70.782512	348.000000	
70.802233	353.000000	
70.821955	327.000000	
70.841676	362.000000	
70.861397	349.000000	
70.881119	311.000000	
70.900840	341.000000	
70.920561	344.000000	
70.940283	320.000000	
70.960004	348.000000	
70.979726	352.000000	
70.999447	337.000000	
71.019168	379.000000	
71.038890	331.000000	
71.058611	303.000000	
71.078332	343.000000	
71.098054	357.000000	
71.117775	352.000000	
71.137496	316.000000	
71.157218	336.000000	
71.176939	327.000000	
71.196661	346.000000	
71.216382	347.000000	
71.236103	366.000000	
71.255825	369.000000	
71.275546	362.000000	
71.295267	369.000000	
71.314989	340.000000	
71.334710	359.000000	
71.354431	343.000000	
71.374153	338.000000	
71.393874	356.000000	
71.413596	315.000000	
71.433317	301.000000	
71.453038	311.000000	
71.472760	330.000000	
71.492481	336.000000	
71.512202	332.000000	
71.531924	339.000000	
71.551645	335.000000	
71.571366	339.000000	
71.591088	359.000000	
71.610809	333.000000	
71.630531	326.000000	
71.650252	334.000000	
71.669973	321.000000	
71.689695	342.000000	
71.709416	337.000000	
71.729137	334.000000	
71.748859	362.000000	
71.768580	345.000000	
71.788301	321.000000	
71.808023	353.000000	
71.827744	341.000000	
71.847466	371.000000	
71.867187	313.000000	
71.886908	353.000000	
71.906630	305.000000	
71.926351	348.000000	
71.946072	342.000000	
71.965794	329.000000	
71.985515	346.000000	
72.005236	347.000000	
72.024958	322.000000	
72.044679	301.000000	
72.064401	333.000000	
72.084122	348.000000	
72.103843	355.000000	
72.123565	315.000000	
72.143286	355.000000	
72.163007	356.000000	
72.182729	322.000000	
72.202450	337.000000	
72.222171	348.000000	
72.241893	346.000000	
72.261614	326.000000	
72.281336	351.000000	
72.301057	340.000000	
72.320778	343.000000	
72.340500	344.000000	
72.360221	348.000000	
72.379942	326.000000	
72.399664	327.000000	
72.419385	340.000000	
72.439106	347.000000	
72.458828	323.000000	
72.478549	364.000000	
72.498271	363.000000	
72.517992	337.000000	
72.537713	351.000000	
72.557435	377.000000	
72.577156	342.000000	
72.596877	323.000000	
72.616599	339.000000	
72.636320	376.000000	
72.656041	345.000000	
72.675763	338.000000	
72.695484	343.000000	
72.715206	323.000000	
72.734927	368.000000	
72.754648	333.000000	
72.774370	343.000000	
72.794091	364.000000	
72.813812	395.000000	
72.833534	367.000000	
72.853255	349.000000	
72.872976	336.000000	
72.892698	356.000000	
72.912419	360.000000	
72.932141	358.000000	
72.951862	344.000000	
72.971583	349.000000	
72.991305	347.000000	
73.011026	328.000000	
73.030747	342.000000	
73.050469	334.000000	
73.070190	344.000000	
73.089911	327.000000	
73.109633	328.000000	
73.129354	364.000000	
73.149076	316.000000	
73.168797	343.000000	
73.188518	360.000000	
73.208240	351.000000	
73.227961	330.000000	
73.247682	326.000000	
73.267404	352.000000	
73.287125	318.000000	
73.306846	336.000000	
73.326568	314.000000	
73.346289	338.000000	
73.366011	356.000000	
73.385732	349.000000	
73.405453	334.000000	
73.425175	352.000000	
73.444896	339.000000	
73.464617	328.000000	
73.484339	345.000000	
73.504060	343.000000	
73.523781	351.000000	
73.543503	353.000000	
73.563224	332.000000	
73.582946	326.000000	
73.602667	364.000000	
73.622388	317.000000	
73.642110	350.000000	
73.661831	321.000000	
73.681552	349.000000	
73.701274	343.000000	
73.720995	371.000000	
73.740716	344.000000	
73.760438	320.000000	
73.780159	303.000000	
73.799881	310.000000	
73.819602	352.000000	
73.839323	335.000000	
73.859045	356.000000	
73.878766	305.000000	
73.898487	325.000000	
73.918209	365.000000	
73.937930	331.000000	
73.957651	329.000000	
73.977373	326.000000	
73.997094	328.000000	
74.016816	344.000000	
74.036537	352.000000	
74.056258	325.000000	
74.075980	330.000000	
74.095701	317.000000	
74.115422	316.000000	
74.135144	327.000000	
74.154865	323.000000	
74.174586	327.000000	
74.194308	322.000000	
74.214029	340.000000	
74.233751	326.000000	
74.253472	347.000000	
74.273193	355.000000	
74.292915	328.000000	
74.312636	339.000000	
74.332357	332.000000	
74.352079	319.000000	
74.371800	339.000000	
74.391521	357.000000	
74.411243	341.000000	
74.430964	307.000000	
74.450686	353.000000	
74.470407	335.000000	
74.490128	324.000000	
74.509850	333.000000	
74.529571	334.000000	
74.549292	347.000000	
74.569014	364.000000	
74.588735	352.000000	
74.608456	331.000000	
74.628178	334.000000	
74.647899	339.000000	
74.667621	328.000000	
74.687342	335.000000	
74.707063	310.000000	
74.726785	357.000000	
74.746506	354.000000	
74.766227	313.000000	
74.785949	348.000000	
74.805670	309.000000	
74.825391	329.000000	
74.845113	395.000000	
74.864834	356.000000	
74.884556	328.000000	
74.904277	347.000000	
74.923998	374.000000	
74.943720	350.000000	
74.963441	369.000000	
74.983162	386.000000	
75.002884	332.000000	
75.022605	394.000000	
75.042326	396.000000	
75.062048	411.000000	
75.081769	464.000000	
75.101491	475.000000	
75.121212	506.000000	
75.140933	627.000000	
75.160655	666.000000	
75.180376	723.000000	
75.200097	791.000000	
75.219819	887.000000	
75.239540	860.000000	
75.259261	938.000000	
75.278983	941.000000	
75.298704	1006.000000	
75.318426	949.000000	
75.338147	967.000000	
75.357868	987.000000	
75.377590	868.000000	
75.397311	823.000000	
75.417032	785.000000	
75.436754	694.000000	
75.456475	686.000000	
75.476196	720.000000	
75.495918	736.000000	
75.515639	696.000000	
75.535361	716.000000	
75.555082	613.000000	
75.574803	608.000000	
75.594525	565.000000	
75.614246	505.000000	
75.633967	438.000000	
75.653689	423.000000	
75.673410	395.000000	
75.693131	358.000000	
75.712853	363.000000	
75.732574	366.000000	
75.752296	329.000000	
75.772017	356.000000	
75.791738	338.000000	
75.811460	353.000000	
75.831181	367.000000	
75.850902	301.000000	
75.870624	360.000000	
75.890345	345.000000	
75.910066	359.000000	
75.929788	353.000000	
75.949509	370.000000	
75.969231	353.000000	
75.988952	323.000000	
76.008673	341.000000	
76.028395	317.000000	
76.048116	333.000000	
76.067837	360.000000	
76.087559	350.000000	
76.107280	295.000000	
76.127001	332.000000	
76.146723	360.000000	
76.166444	324.000000	
76.186166	335.000000	
76.205887	319.000000	
76.225608	313.000000	
76.245330	305.000000	
76.265051	323.000000	
76.284772	318.000000	
76.304494	317.000000	
76.324215	330.000000	
76.343936	323.000000	
76.363658	323.000000	
76.383379	318.000000	
76.403101	341.000000	
76.422822	361.000000	
76.442543	351.000000	
76.462265	311.000000	
76.481986	330.000000	
76.501707	329.000000	
76.521429	343.000000	
76.541150	339.000000	
76.560871	336.000000	
76.580593	340.000000	
76.600314	345.000000	
76.620036	287.000000	
76.639757	342.000000	
76.659478	338.000000	
76.679200	341.000000	
76.698921	315.000000	
76.718642	323.000000	
76.738364	340.000000	
76.758085	352.000000	
76.777806	312.000000	
76.797528	326.000000	
76.817249	345.000000	
76.836971	293.000000	
76.856692	305.000000	
76.876413	337.000000	
76.896135	293.000000	
76.915856	357.000000	
76.935577	343.000000	
76.955299	326.000000	
76.975020	323.000000	
76.994741	315.000000	
77.014463	333.000000	
77.034184	343.000000	
77.053906	307.000000	
77.073627	300.000000	
77.093348	353.000000	
77.113070	306.000000	
77.132791	317.000000	
77.152512	335.000000	
77.172234	337.000000	
77.191955	323.000000	
77.211676	329.000000	
77.231398	324.000000	
77.251119	307.000000	
77.270841	300.000000	
77.290562	319.000000	
77.310283	316.000000	
77.330005	296.000000	
77.349726	303.000000	
77.369447	325.000000	
77.389169	335.000000	
77.408890	320.000000	
77.428612	333.000000	
77.448333	304.000000	
77.468054	354.000000	
77.487776	280.000000	
77.507497	303.000000	
77.527218	325.000000	
77.546940	319.000000	
77.566661	354.000000	
77.586382	315.000000	
77.606104	320.000000	
77.625825	331.000000	
77.645547	348.000000	
77.665268	335.000000	
77.684989	311.000000	
77.704711	327.000000	
77.724432	316.000000	
77.744153	306.000000	
77.763875	326.000000	
77.783596	315.000000	
77.803317	324.000000	
77.823039	310.000000	
77.842760	318.000000	
77.862482	290.000000	
77.882203	313.000000	
77.901924	312.000000	
77.921646	309.000000	
77.941367	348.000000	
77.961088	312.000000	
77.980810	355.000000	
78.000531	318.000000	
78.020252	334.000000	
78.039974	297.000000	
78.059695	291.000000	
78.079417	343.000000	
78.099138	295.000000	
78.118859	340.000000	
78.138581	327.000000	
78.158302	354.000000	
78.178023	344.000000	
78.197745	328.000000	
78.217466	330.000000	
78.237187	352.000000	
78.256909	300.000000	
78.276630	364.000000	
78.296352	333.000000	
78.316073	320.000000	
78.335794	288.000000	
78.355516	336.000000	
78.375237	297.000000	
78.394958	345.000000	
78.414680	336.000000	
78.434401	311.000000	
78.454122	319.000000	
78.473844	303.000000	
78.493565	331.000000	
78.513287	337.000000	
78.533008	337.000000	
78.552729	318.000000	
78.572451	343.000000	
78.592172	363.000000	
78.611893	353.000000	
78.631615	326.000000	
78.651336	346.000000	
78.671057	303.000000	
78.690779	294.000000	
78.710500	333.000000	
78.730222	343.000000	
78.749943	330.000000	
78.769664	333.000000	
78.789386	306.000000	
78.809107	363.000000	
78.828828	323.000000	
78.848550	293.000000	
78.868271	326.000000	
78.887992	340.000000	
78.907714	339.000000	
78.927435	299.000000	
78.947157	333.000000	
78.966878	312.000000	
78.986599	331.000000	
79.006321	312.000000	
79.026042	350.000000	
79.045763	342.000000	
79.065485	292.000000	
79.085206	332.000000	
79.104927	347.000000	
79.124649	308.000000	
79.144370	316.000000	
79.164092	326.000000	
79.183813	319.000000	
79.203534	315.000000	
79.223256	339.000000	
79.242977	343.000000	
79.262698	312.000000	
79.282420	330.000000	
79.302141	315.000000	
79.321862	347.000000	
79.341584	298.000000	
79.361305	306.000000	
79.381027	323.000000	
79.400748	328.000000	
79.420469	335.000000	
79.440191	307.000000	
79.459912	302.000000	
79.479633	336.000000	
79.499355	341.000000	
79.519076	334.000000	
79.538797	332.000000	
79.558519	350.000000	
79.578240	309.000000	
79.597962	302.000000	
79.617683	322.000000	
79.637404	278.000000	
79.657126	344.000000	
79.676847	267.000000	
79.696568	321.000000	
79.716290	314.000000	
79.736011	329.000000	
79.755732	339.000000	
79.775454	326.000000	
79.795175	314.000000	
79.814897	318.000000	
79.834618	312.000000	
79.854339	328.000000	
79.874061	341.000000	
79.893782	289.000000	
79.913503	333.000000	
79.933225	361.000000	
79.952946	330.000000	
79.972667	332.000000	
79.992389	302.000000	
80.012110	312.000000	
80.031832	356.000000	
80.051553	328.000000	
80.071274	280.000000	
80.090996	309.000000	
80.110717	316.000000	
80.130438	312.000000	
80.150160	303.000000	
80.169881	315.000000	
80.189602	325.000000	
80.209324	348.000000	
80.229045	318.000000	
80.248767	313.000000	
80.268488	321.000000	
80.288209	310.000000	
80.307931	276.000000	
80.327652	335.000000	
80.347373	348.000000	
80.367095	305.000000	
80.386816	303.000000	
80.406537	308.000000	
80.426259	335.000000	
80.445980	335.000000	
80.465702	325.000000	
80.485423	338.000000	
80.505144	316.000000	
80.524866	316.000000	
80.544587	303.000000	
80.564308	327.000000	
80.584030	336.000000	
80.603751	306.000000	
80.623472	303.000000	
80.643194	294.000000	
80.662915	340.000000	
80.682637	295.000000	
80.702358	314.000000	
80.722079	319.000000	
80.741801	312.000000	
80.761522	343.000000	
80.781243	291.000000	
80.800965	335.000000	
80.820686	293.000000	
80.840407	341.000000	
80.860129	303.000000	
80.879850	334.000000	
80.899572	294.000000	
80.919293	319.000000	
80.939014	346.000000	
80.958736	342.000000	
80.978457	320.000000	
80.998178	283.000000	
81.017900	296.000000	
81.037621	317.000000	
81.057342	297.000000	
81.077064	297.000000	
81.096785	296.000000	
81.116507	312.000000	
81.136228	347.000000	
81.155949	319.000000	
81.175671	303.000000	
81.195392	295.000000	
81.215113	334.000000	
81.234835	310.000000	
81.254556	343.000000	
81.274277	317.000000	
81.293999	328.000000	
81.313720	329.000000	
81.333442	320.000000	
81.353163	317.000000	
81.372884	317.000000	
81.392606	308.000000	
81.412327	337.000000	
81.432048	316.000000	
81.451770	315.000000	
81.471491	325.000000	
81.491212	311.000000	
81.510934	319.000000	
81.530655	325.000000	
81.550377	306.000000	
81.570098	346.000000	
81.589819	298.000000	
81.609541	302.000000	
81.629262	327.000000	
81.648983	301.000000	
81.668705	317.000000	
81.688426	315.000000	
81.708147	297.000000	
81.727869	281.000000	
81.747590	321.000000	
81.767312	315.000000	
81.787033	301.000000	
81.806754	334.000000	
81.826476	289.000000	
81.846197	304.000000	
81.865918	318.000000	
81.885640	296.000000	
81.905361	324.000000	
81.925082	343.000000	
81.944804	314.000000	
81.964525	318.000000	
81.984247	305.000000	
82.003968	295.000000	
82.023689	304.000000	
82.043411	288.000000	
82.063132	325.000000	
82.082853	300.000000	
82.102575	343.000000	
82.122296	278.000000	
82.142017	288.000000	
82.161739	335.000000	
82.181460	292.000000	
82.201182	310.000000	
82.220903	312.000000	
82.240624	308.000000	
82.260346	310.000000	
82.280067	287.000000	
82.299788	280.000000	
82.319510	323.000000	
82.339231	312.000000	
82.358952	275.000000	
82.378674	317.000000	
82.398395	302.000000	
82.418117	288.000000	
82.437838	320.000000	
82.457559	300.000000	
82.477281	293.000000	
82.497002	270.000000	
82.516723	301.000000	
82.536445	317.000000	
82.556166	290.000000	
82.575887	280.000000	
82.595609	313.000000	
82.615330	326.000000	
82.635052	289.000000	
82.654773	290.000000	
82.674494	294.000000	
82.694216	334.000000	
82.713937	288.000000	
82.733658	271.000000	
82.753380	315.000000	
82.773101	309.000000	
82.792822	292.000000	
82.812544	294.000000	
82.832265	312.000000	
82.851987	309.000000	
82.871708	301.000000	
82.891429	304.000000	
82.911151	295.000000	
82.930872	287.000000	
82.950593	295.000000	
82.970315	326.000000	
82.990036	302.000000	
83.009757	328.000000	
83.029479	329.000000	
83.049200	326.000000	
83.068922	298.000000	
83.088643	323.000000	
83.108364	292.000000	
83.128086	275.000000	
83.147807	298.000000	
83.167528	284.000000	
83.187250	350.000000	
83.206971	300.000000	
83.226692	317.000000	
83.246414	284.000000	
83.266135	311.000000	
83.285857	286.000000	
83.305578	345.000000	
83.325299	322.000000	
83.345021	278.000000	
83.364742	314.000000	
83.384463	310.000000	
83.404185	293.000000	
83.423906	306.000000	
83.443627	305.000000	
83.463349	336.000000	
83.483070	300.000000	
83.502792	308.000000	
83.522513	297.000000	
83.542234	296.000000	
83.561956	317.000000	
83.581677	311.000000	
83.601398	327.000000	
83.621120	306.000000	
83.640841	290.000000	
83.660562	354.000000	
83.680284	327.000000	
83.700005	320.000000	
83.719727	303.000000	
83.739448	312.000000	
83.759169	313.000000	
83.778891	300.000000	
83.798612	329.000000	
83.818333	313.000000	
83.838055	352.000000	
83.857776	291.000000	
83.877497	312.000000	
83.897219	295.000000	
83.916940	295.000000	
83.936662	313.000000	
83.956383	334.000000	
83.976104	340.000000	
83.995826	314.000000	
84.015547	283.000000	
84.035268	328.000000	
84.054990	309.000000	
84.074711	312.000000	
84.094432	292.000000	
84.114154	346.000000	
84.133875	313.000000	
84.153597	299.000000	
84.173318	288.000000	
84.193039	273.000000	
84.212761	309.000000	
84.232482	314.000000	
84.252203	308.000000	
84.271925	339.000000	
84.291646	298.000000	
84.311367	282.000000	
84.331089	306.000000	
84.350810	296.000000	
84.370532	307.000000	
84.390253	297.000000	
84.409974	312.000000	
84.429696	312.000000	
84.449417	312.000000	
84.469138	289.000000	
84.488860	301.000000	
84.508581	308.000000	
84.528302	279.000000	
84.548024	273.000000	
84.567745	316.000000	
84.587467	308.000000	
84.607188	304.000000	
84.626909	309.000000	
84.646631	331.000000	
84.666352	278.000000	
84.686073	302.000000	
84.705795	299.000000	
84.725516	286.000000	
84.745237	291.000000	
84.764959	321.000000	
84.784680	265.000000	
84.804402	303.000000	
84.824123	278.000000	
84.843844	284.000000	
84.863566	305.000000	
84.883287	320.000000	
84.903008	351.000000	
84.922730	306.000000	
84.942451	308.000000	
84.962172	317.000000	
84.981894	293.000000	
85.001615	328.000000	
85.021337	307.000000	
85.041058	287.000000	
85.060779	292.000000	
85.080501	271.000000	
85.100222	316.000000	
85.119943	349.000000	
85.139665	309.000000	
85.159386	294.000000	
85.179107	297.000000	
85.198829	296.000000	
85.218550	308.000000	
85.238272	287.000000	
85.257993	290.000000	
85.277714	303.000000	
85.297436	329.000000	
85.317157	325.000000	
85.336878	301.000000	
85.356600	312.000000	
85.376321	300.000000	
85.396042	310.000000	
85.415764	326.000000	
85.435485	265.000000	
85.455207	318.000000	
85.474928	298.000000	
85.494649	306.000000	
85.514371	286.000000	
85.534092	330.000000	
85.553813	309.000000	
85.573535	304.000000	
85.593256	280.000000	
85.612977	303.000000	
85.632699	293.000000	
85.652420	305.000000	
85.672142	315.000000	
85.691863	284.000000	
85.711584	294.000000	
85.731306	278.000000	
85.751027	297.000000	
85.770748	307.000000	
85.790470	293.000000	
85.810191	303.000000	
85.829912	298.000000	
85.849634	351.000000	
85.869355	326.000000	
85.889077	304.000000	
85.908798	317.000000	
85.928519	286.000000	
85.948241	296.000000	
85.967962	258.000000	
85.987683	273.000000	
86.007405	280.000000	
86.027126	301.000000	
86.046848	307.000000	
86.066569	304.000000	
86.086290	302.000000	
86.106012	321.000000	
86.125733	299.000000	
86.145454	339.000000	
86.165176	283.000000	
86.184897	303.000000	
86.204618	312.000000	
86.224340	280.000000	
86.244061	295.000000	
86.263783	276.000000	
86.283504	324.000000	
86.303225	271.000000	
86.322947	295.000000	
86.342668	276.000000	
86.362389	291.000000	
86.382111	294.000000	
86.401832	289.000000	
86.421553	287.000000	
86.441275	289.000000	
86.460996	271.000000	
86.480718	306.000000	
86.500439	297.000000	
86.520160	299.000000	
86.539882	308.000000	
86.559603	271.000000	
86.579324	311.000000	
86.599046	307.000000	
86.618767	281.000000	
86.638488	314.000000	
86.658210	325.000000	
86.677931	331.000000	
86.697653	294.000000	
86.717374	263.000000	
86.737095	294.000000	
86.756817	293.000000	
86.776538	289.000000	
86.796259	289.000000	
86.815981	287.000000	
86.835702	312.000000	
86.855423	335.000000	
86.875145	288.000000	
86.894866	295.000000	
86.914588	276.000000	
86.934309	287.000000	
86.954030	310.000000	
86.973752	286.000000	
86.993473	284.000000	
87.013194	266.000000	
87.032916	319.000000	
87.052637	301.000000	
87.072358	316.000000	
87.092080	299.000000	
87.111801	289.000000	
87.131523	280.000000	
87.151244	304.000000	
87.170965	279.000000	
87.190687	327.000000	
87.210408	303.000000	
87.230129	320.000000	
87.249851	293.000000	
87.269572	276.000000	
87.289293	282.000000	
87.309015	270.000000	
87.328736	257.000000	
87.348458	291.000000	
87.368179	278.000000	
87.387900	277.000000	
87.407622	283.000000	
87.427343	300.000000	
87.447064	282.000000	
87.466786	259.000000	
87.486507	314.000000	
87.506228	298.000000	
87.525950	343.000000	
87.545671	336.000000	
87.565393	282.000000	
87.585114	281.000000	
87.604835	309.000000	
87.624557	257.000000	
87.644278	297.000000	
87.663999	295.000000	
87.683721	339.000000	
87.703442	281.000000	
87.723163	278.000000	
87.742885	291.000000	
87.762606	290.000000	
87.782328	286.000000	
87.802049	261.000000	
87.821770	254.000000	
87.841492	296.000000	
87.861213	288.000000	
87.880934	291.000000	
87.900656	288.000000	
87.920377	293.000000	
87.940098	305.000000	
87.959820	312.000000	
87.979541	292.000000	
87.999263	320.000000	
88.018984	301.000000	
88.038705	278.000000	
88.058427	307.000000	
88.078148	281.000000	
88.097869	320.000000	
88.117591	284.000000	
88.137312	292.000000	
88.157033	287.000000	
88.176755	300.000000	
88.196476	294.000000	
88.216198	338.000000	
88.235919	280.000000	
88.255640	294.000000	
88.275362	294.000000	
88.295083	302.000000	
88.314804	301.000000	
88.334526	299.000000	
88.354247	292.000000	
88.373968	288.000000	
88.393690	269.000000	
88.413411	280.000000	
88.433133	323.000000	
88.452854	288.000000	
88.472575	315.000000	
88.492297	270.000000	
88.512018	268.000000	
88.531739	290.000000	
88.551461	280.000000	
88.571182	308.000000	
88.590903	266.000000	
88.610625	255.000000	
88.630346	292.000000	
88.650068	289.000000	
88.669789	289.000000	
88.689510	266.000000	
88.709232	285.000000	
88.728953	292.000000	
88.748674	281.000000	
88.768396	295.000000	
88.788117	315.000000	
88.807838	288.000000	
88.827560	297.000000	
88.847281	291.000000	
88.867003	251.000000	
88.886724	295.000000	
88.906445	296.000000	
88.926167	294.000000	
88.945888	275.000000	
88.965609	276.000000	
88.985331	288.000000	
89.005052	281.000000	
89.024773	265.000000	
89.044495	297.000000	
89.064216	292.000000	
89.083938	288.000000	
89.103659	274.000000	
89.123380	307.000000	
89.143102	308.000000	
89.162823	292.000000	
89.182544	308.000000	
89.202266	309.000000	
89.221987	232.000000	
89.241708	279.000000	
89.261430	307.000000	
89.281151	306.000000	
89.300873	281.000000	
89.320594	282.000000	
89.340315	324.000000	
89.360037	330.000000	
89.379758	310.000000	
89.399479	276.000000	
89.419201	294.000000	
89.438922	288.000000	
89.458643	311.000000	
89.478365	296.000000	
89.498086	289.000000	
89.517808	270.000000	
89.537529	333.000000	
89.557250	320.000000	
89.576972	264.000000	
89.596693	307.000000	
89.616414	292.000000	
89.636136	289.000000	
89.655857	299.000000	
89.675578	279.000000	
89.695300	290.000000	
89.715021	259.000000	
89.734743	323.000000	
89.754464	276.000000	
89.774185	309.000000	
89.793907	309.000000	
89.813628	284.000000	
89.833349	287.000000	
89.853071	293.000000	
89.872792	349.000000	
89.892513	309.000000	
89.912235	314.000000	
89.931956	323.000000	
89.951678	259.000000	
89.971399	314.000000	
89.991120	297.000000	
