;content of D:\data\result\mecham\???\20231225-89741\800-X.raw - (Diffrac Plus V4 file)
_FILEVERSION = 3
_SAMPLE
_+SAMPLE
_USER = Lab Manager
_GONIOMETER_CODE = 21
_STAGE_CODE = 7
; Goniometer : D8 theta/theta, stage : Chi drive
_SAMPLE_CHANGER_CODE = 0
_ATTACHMENTS_CODE = 0
_GONIOMETER_RADIUS = 280
_MONOCHROMATOR = 0
; Incident beam monochromator : None
_BETA_FILTER = N
_ANALYZER_CODE = 0
; Received beam analyzer : None
_DATEMEASURED = 25-Dec-2023 12:01:33
_RUNTIME = 11.18897
_WL_UNIT = A
_WL1 = 1.5406
_WL2 = 1.54439
_WL3 = 1.39222
_WLRATIO = 0.5
_ANODE = Cu
_V4_INF_USER = Lab Manager
_V4_INF_CREATOR = V5Converter
_V4_INF_CREATOR_VERSION = 4.4.16.0

; Data for range 1
_DRIVE = COUPLED
_STEPTIME = 57.6
_STEPSIZE = 0.019721
_STEPMODE = C
_START = 20
_THETA = 10
_2THETA = 20
_KHI = 0
_PHI = 0
_DETECTORSLIT = out
_AUX1 = 0
_TIMESTARTED = 0
_KV = 40
_MA = 40
_RANGE_WL = 1.5406
_3DPLANE = 0
_V4_PSD2THETA = 9999
_V4_PSDCHANNEL1 = 0
_V4_PSDAPERTURE = 2.839876
_V4_PSDTYPE = 5
_V4_PSDFIXED = 0
_V4_COUNTERS_MASK = 1
_V4_DRIVES_MASK = 0
_V4_ENCODERS_MASK = 0
_2THETACOUNTS = 1
; 2THETA	Cnt2_D1	
20.000000	85.000000	
20.019721	89.000000	
20.039443	89.000000	
20.059164	75.000000	
20.078885	93.000000	
20.098607	82.000000	
20.118328	90.000000	
20.138050	60.000000	
20.157771	81.000000	
20.177492	88.000000	
20.197214	85.000000	
20.216935	79.000000	
20.236656	76.000000	
20.256378	87.000000	
20.276099	91.000000	
20.295820	99.000000	
20.315542	75.000000	
20.335263	79.000000	
20.354985	87.000000	
20.374706	90.000000	
20.394427	85.000000	
20.414149	91.000000	
20.433870	81.000000	
20.453591	75.000000	
20.473313	94.000000	
20.493034	81.000000	
20.512755	67.000000	
20.532477	76.000000	
20.552198	77.000000	
20.571920	82.000000	
20.591641	90.000000	
20.611362	84.000000	
20.631084	92.000000	
20.650805	86.000000	
20.670526	75.000000	
20.690248	68.000000	
20.709969	96.000000	
20.729690	87.000000	
20.749412	90.000000	
20.769133	100.000000	
20.788855	81.000000	
20.808576	86.000000	
20.828297	84.000000	
20.848019	63.000000	
20.867740	83.000000	
20.887461	96.000000	
20.907183	85.000000	
20.926904	87.000000	
20.946625	76.000000	
20.966347	88.000000	
20.986068	64.000000	
21.005790	94.000000	
21.025511	81.000000	
21.045232	83.000000	
21.064954	76.000000	
21.084675	79.000000	
21.104396	84.000000	
21.124118	83.000000	
21.143839	85.000000	
21.163560	79.000000	
21.183282	86.000000	
21.203003	73.000000	
21.222725	70.000000	
21.242446	98.000000	
21.262167	83.000000	
21.281889	82.000000	
21.301610	96.000000	
21.321331	92.000000	
21.341053	85.000000	
21.360774	87.000000	
21.380495	75.000000	
21.400217	79.000000	
21.419938	80.000000	
21.439660	77.000000	
21.459381	82.000000	
21.479102	79.000000	
21.498824	75.000000	
21.518545	84.000000	
21.538266	92.000000	
21.557988	74.000000	
21.577709	86.000000	
21.597430	85.000000	
21.617152	76.000000	
21.636873	77.000000	
21.656595	73.000000	
21.676316	98.000000	
21.696037	85.000000	
21.715759	81.000000	
21.735480	65.000000	
21.755201	82.000000	
21.774923	84.000000	
21.794644	89.000000	
21.814365	80.000000	
21.834087	84.000000	
21.853808	91.000000	
21.873530	81.000000	
21.893251	71.000000	
21.912972	88.000000	
21.932694	84.000000	
21.952415	73.000000	
21.972136	70.000000	
21.991858	97.000000	
22.011579	70.000000	
22.031300	71.000000	
22.051022	80.000000	
22.070743	97.000000	
22.090465	78.000000	
22.110186	71.000000	
22.129907	61.000000	
22.149629	69.000000	
22.169350	81.000000	
22.189071	82.000000	
22.208793	59.000000	
22.228514	76.000000	
22.248235	63.000000	
22.267957	69.000000	
22.287678	73.000000	
22.307400	84.000000	
22.327121	77.000000	
22.346842	79.000000	
22.366564	75.000000	
22.386285	58.000000	
22.406006	85.000000	
22.425728	69.000000	
22.445449	76.000000	
22.465170	74.000000	
22.484892	88.000000	
22.504613	96.000000	
22.524335	80.000000	
22.544056	62.000000	
22.563777	77.000000	
22.583499	93.000000	
22.603220	77.000000	
22.622941	89.000000	
22.642663	76.000000	
22.662384	78.000000	
22.682105	65.000000	
22.701827	82.000000	
22.721548	78.000000	
22.741270	53.000000	
22.760991	74.000000	
22.780712	65.000000	
22.800434	79.000000	
22.820155	73.000000	
22.839876	81.000000	
22.859598	72.000000	
22.879319	77.000000	
22.899040	72.000000	
22.918762	62.000000	
22.938483	74.000000	
22.958205	70.000000	
22.977926	77.000000	
22.997647	86.000000	
23.017369	76.000000	
23.037090	62.000000	
23.056811	83.000000	
23.076533	73.000000	
23.096254	76.000000	
23.115975	76.000000	
23.135697	74.000000	
23.155418	63.000000	
23.175140	82.000000	
23.194861	82.000000	
23.214582	43.000000	
23.234304	67.000000	
23.254025	79.000000	
23.273746	87.000000	
23.293468	76.000000	
23.313189	66.000000	
23.332910	75.000000	
23.352632	67.000000	
23.372353	63.000000	
23.392075	97.000000	
23.411796	74.000000	
23.431517	76.000000	
23.451239	66.000000	
23.470960	68.000000	
23.490681	74.000000	
23.510403	64.000000	
23.530124	66.000000	
23.549845	70.000000	
23.569567	65.000000	
23.589288	75.000000	
23.609010	68.000000	
23.628731	73.000000	
23.648452	78.000000	
23.668174	69.000000	
23.687895	74.000000	
23.707616	81.000000	
23.727338	78.000000	
23.747059	71.000000	
23.766780	75.000000	
23.786502	85.000000	
23.806223	75.000000	
23.825945	69.000000	
23.845666	73.000000	
23.865387	81.000000	
23.885109	71.000000	
23.904830	69.000000	
23.924551	78.000000	
23.944273	89.000000	
23.963994	72.000000	
23.983715	85.000000	
24.003437	81.000000	
24.023158	96.000000	
24.042880	104.000000	
24.062601	95.000000	
24.082322	123.000000	
24.102044	141.000000	
24.121765	211.000000	
24.141486	326.000000	
24.161208	440.000000	
24.180929	569.000000	
24.200650	700.000000	
24.220372	687.000000	
24.240093	618.000000	
24.259815	481.000000	
24.279536	393.000000	
24.299257	286.000000	
24.318979	162.000000	
24.338700	111.000000	
24.358421	122.000000	
24.378143	94.000000	
24.397864	87.000000	
24.417586	75.000000	
24.437307	100.000000	
24.457028	82.000000	
24.476750	77.000000	
24.496471	77.000000	
24.516192	57.000000	
24.535914	69.000000	
24.555635	75.000000	
24.575356	77.000000	
24.595078	83.000000	
24.614799	70.000000	
24.634521	72.000000	
24.654242	76.000000	
24.673963	64.000000	
24.693685	78.000000	
24.713406	82.000000	
24.733127	84.000000	
24.752849	77.000000	
24.772570	85.000000	
24.792291	64.000000	
24.812013	75.000000	
24.831734	81.000000	
24.851456	65.000000	
24.871177	61.000000	
24.890898	73.000000	
24.910620	70.000000	
24.930341	77.000000	
24.950062	63.000000	
24.969784	68.000000	
24.989505	84.000000	
25.009226	70.000000	
25.028948	79.000000	
25.048669	65.000000	
25.068391	75.000000	
25.088112	71.000000	
25.107833	83.000000	
25.127555	83.000000	
25.147276	71.000000	
25.166997	70.000000	
25.186719	61.000000	
25.206440	77.000000	
25.226161	85.000000	
25.245883	65.000000	
25.265604	66.000000	
25.285326	72.000000	
25.305047	71.000000	
25.324768	73.000000	
25.344490	59.000000	
25.364211	73.000000	
25.383932	82.000000	
25.403654	62.000000	
25.423375	63.000000	
25.443096	67.000000	
25.462818	71.000000	
25.482539	71.000000	
25.502261	68.000000	
25.521982	63.000000	
25.541703	69.000000	
25.561425	77.000000	
25.581146	71.000000	
25.600867	81.000000	
25.620589	72.000000	
25.640310	65.000000	
25.660031	56.000000	
25.679753	91.000000	
25.699474	77.000000	
25.719196	85.000000	
25.738917	72.000000	
25.758638	70.000000	
25.778360	58.000000	
25.798081	60.000000	
25.817802	63.000000	
25.837524	67.000000	
25.857245	71.000000	
25.876966	77.000000	
25.896688	68.000000	
25.916409	74.000000	
25.936131	52.000000	
25.955852	63.000000	
25.975573	64.000000	
25.995295	80.000000	
26.015016	55.000000	
26.034737	56.000000	
26.054459	69.000000	
26.074180	57.000000	
26.093901	61.000000	
26.113623	80.000000	
26.133344	59.000000	
26.153066	68.000000	
26.172787	60.000000	
26.192508	72.000000	
26.212230	53.000000	
26.231951	60.000000	
26.251672	65.000000	
26.271394	73.000000	
26.291115	66.000000	
26.310836	59.000000	
26.330558	79.000000	
26.350279	77.000000	
26.370001	65.000000	
26.389722	65.000000	
26.409443	65.000000	
26.429165	53.000000	
26.448886	61.000000	
26.468607	59.000000	
26.488329	60.000000	
26.508050	74.000000	
26.527771	62.000000	
26.547493	55.000000	
26.567214	50.000000	
26.586936	67.000000	
26.606657	70.000000	
26.626378	58.000000	
26.646100	69.000000	
26.665821	70.000000	
26.685542	66.000000	
26.705264	75.000000	
26.724985	47.000000	
26.744706	75.000000	
26.764428	62.000000	
26.784149	61.000000	
26.803871	70.000000	
26.823592	56.000000	
26.843313	60.000000	
26.863035	76.000000	
26.882756	64.000000	
26.902477	74.000000	
26.922199	52.000000	
26.941920	59.000000	
26.961641	64.000000	
26.981363	78.000000	
27.001084	74.000000	
27.020806	69.000000	
27.040527	59.000000	
27.060248	63.000000	
27.079970	50.000000	
27.099691	58.000000	
27.119412	60.000000	
27.139134	52.000000	
27.158855	61.000000	
27.178576	77.000000	
27.198298	64.000000	
27.218019	53.000000	
27.237741	48.000000	
27.257462	65.000000	
27.277183	67.000000	
27.296905	61.000000	
27.316626	58.000000	
27.336347	64.000000	
27.356069	66.000000	
27.375790	94.000000	
27.395511	70.000000	
27.415233	53.000000	
27.434954	78.000000	
27.454676	50.000000	
27.474397	73.000000	
27.494118	76.000000	
27.513840	61.000000	
27.533561	63.000000	
27.553282	71.000000	
27.573004	56.000000	
27.592725	59.000000	
27.612446	50.000000	
27.632168	63.000000	
27.651889	64.000000	
27.671611	60.000000	
27.691332	60.000000	
27.711053	79.000000	
27.730775	50.000000	
27.750496	72.000000	
27.770217	58.000000	
27.789939	56.000000	
27.809660	54.000000	
27.829381	60.000000	
27.849103	67.000000	
27.868824	54.000000	
27.888546	62.000000	
27.908267	71.000000	
27.927988	55.000000	
27.947710	42.000000	
27.967431	52.000000	
27.987152	70.000000	
28.006874	64.000000	
28.026595	55.000000	
28.046316	47.000000	
28.066038	53.000000	
28.085759	60.000000	
28.105481	55.000000	
28.125202	63.000000	
28.144923	52.000000	
28.164645	59.000000	
28.184366	43.000000	
28.204087	47.000000	
28.223809	61.000000	
28.243530	43.000000	
28.263251	51.000000	
28.282973	60.000000	
28.302694	55.000000	
28.322416	55.000000	
28.342137	63.000000	
28.361858	64.000000	
28.381580	50.000000	
28.401301	73.000000	
28.421022	60.000000	
28.440744	55.000000	
28.460465	55.000000	
28.480186	60.000000	
28.499908	63.000000	
28.519629	54.000000	
28.539351	62.000000	
28.559072	62.000000	
28.578793	64.000000	
28.598515	64.000000	
28.618236	51.000000	
28.637957	56.000000	
28.657679	55.000000	
28.677400	51.000000	
28.697121	69.000000	
28.716843	47.000000	
28.736564	55.000000	
28.756286	56.000000	
28.776007	54.000000	
28.795728	54.000000	
28.815450	58.000000	
28.835171	63.000000	
28.854892	57.000000	
28.874614	78.000000	
28.894335	50.000000	
28.914056	63.000000	
28.933778	44.000000	
28.953499	59.000000	
28.973221	58.000000	
28.992942	62.000000	
29.012663	64.000000	
29.032385	60.000000	
29.052106	53.000000	
29.071827	57.000000	
29.091549	64.000000	
29.111270	49.000000	
29.130991	44.000000	
29.150713	57.000000	
29.170434	64.000000	
29.190156	61.000000	
29.209877	73.000000	
29.229598	51.000000	
29.249320	59.000000	
29.269041	52.000000	
29.288762	44.000000	
29.308484	64.000000	
29.328205	52.000000	
29.347926	44.000000	
29.367648	59.000000	
29.387369	56.000000	
29.407091	46.000000	
29.426812	53.000000	
29.446533	57.000000	
29.466255	74.000000	
29.485976	66.000000	
29.505697	53.000000	
29.525419	49.000000	
29.545140	65.000000	
29.564861	49.000000	
29.584583	53.000000	
29.604304	54.000000	
29.624026	59.000000	
29.643747	63.000000	
29.663468	62.000000	
29.683190	51.000000	
29.702911	42.000000	
29.722632	60.000000	
29.742354	55.000000	
29.762075	42.000000	
29.781796	67.000000	
29.801518	50.000000	
29.821239	51.000000	
29.840961	48.000000	
29.860682	57.000000	
29.880403	53.000000	
29.900125	63.000000	
29.919846	49.000000	
29.939567	62.000000	
29.959289	49.000000	
29.979010	49.000000	
29.998731	46.000000	
30.018453	47.000000	
30.038174	59.000000	
30.057896	59.000000	
30.077617	68.000000	
30.097338	74.000000	
30.117060	76.000000	
30.136781	76.000000	
30.156502	64.000000	
30.176224	70.000000	
30.195945	84.000000	
30.215666	70.000000	
30.235388	62.000000	
30.255109	70.000000	
30.274831	55.000000	
30.294552	60.000000	
30.314273	56.000000	
30.333995	59.000000	
30.353716	69.000000	
30.373437	64.000000	
30.393159	53.000000	
30.412880	56.000000	
30.432601	49.000000	
30.452323	60.000000	
30.472044	47.000000	
30.491766	62.000000	
30.511487	53.000000	
30.531208	48.000000	
30.550930	57.000000	
30.570651	55.000000	
30.590372	50.000000	
30.610094	62.000000	
30.629815	64.000000	
30.649536	39.000000	
30.669258	49.000000	
30.688979	50.000000	
30.708701	54.000000	
30.728422	48.000000	
30.748143	49.000000	
30.767865	58.000000	
30.787586	62.000000	
30.807307	53.000000	
30.827029	48.000000	
30.846750	47.000000	
30.866471	65.000000	
30.886193	69.000000	
30.905914	53.000000	
30.925636	58.000000	
30.945357	47.000000	
30.965078	51.000000	
30.984800	42.000000	
31.004521	59.000000	
31.024242	52.000000	
31.043964	49.000000	
31.063685	57.000000	
31.083406	39.000000	
31.103128	69.000000	
31.122849	64.000000	
31.142571	68.000000	
31.162292	38.000000	
31.182013	46.000000	
31.201735	61.000000	
31.221456	60.000000	
31.241177	56.000000	
31.260899	58.000000	
31.280620	50.000000	
31.300341	43.000000	
31.320063	53.000000	
31.339784	35.000000	
31.359506	53.000000	
31.379227	59.000000	
31.398948	57.000000	
31.418670	54.000000	
31.438391	53.000000	
31.458112	51.000000	
31.477834	64.000000	
31.497555	42.000000	
31.517276	50.000000	
31.536998	67.000000	
31.556719	53.000000	
31.576441	53.000000	
31.596162	63.000000	
31.615883	53.000000	
31.635605	72.000000	
31.655326	46.000000	
31.675047	54.000000	
31.694769	52.000000	
31.714490	58.000000	
31.734211	56.000000	
31.753933	61.000000	
31.773654	48.000000	
31.793376	56.000000	
31.813097	47.000000	
31.832818	58.000000	
31.852540	57.000000	
31.872261	42.000000	
31.891982	55.000000	
31.911704	62.000000	
31.931425	54.000000	
31.951146	45.000000	
31.970868	52.000000	
31.990589	48.000000	
32.010311	48.000000	
32.030032	63.000000	
32.049753	53.000000	
32.069475	51.000000	
32.089196	70.000000	
32.108917	55.000000	
32.128639	56.000000	
32.148360	65.000000	
32.168081	67.000000	
32.187803	63.000000	
32.207524	63.000000	
32.227246	57.000000	
32.246967	59.000000	
32.266688	57.000000	
32.286410	54.000000	
32.306131	62.000000	
32.325852	52.000000	
32.345574	59.000000	
32.365295	70.000000	
32.385016	71.000000	
32.404738	45.000000	
32.424459	76.000000	
32.444181	51.000000	
32.463902	66.000000	
32.483623	68.000000	
32.503345	47.000000	
32.523066	65.000000	
32.542787	55.000000	
32.562509	58.000000	
32.582230	51.000000	
32.601951	61.000000	
32.621673	45.000000	
32.641394	55.000000	
32.661116	64.000000	
32.680837	61.000000	
32.700558	66.000000	
32.720280	60.000000	
32.740001	53.000000	
32.759722	65.000000	
32.779444	77.000000	
32.799165	63.000000	
32.818886	59.000000	
32.838608	74.000000	
32.858329	66.000000	
32.878051	70.000000	
32.897772	93.000000	
32.917493	85.000000	
32.937215	81.000000	
32.956936	68.000000	
32.976657	77.000000	
32.996379	115.000000	
33.016100	135.000000	
33.035821	150.000000	
33.055543	188.000000	
33.075264	271.000000	
33.094986	393.000000	
33.114707	645.000000	
33.134428	1078.000000	
33.154150	1618.000000	
33.173871	2387.000000	
33.193592	2999.000000	
33.213314	3389.000000	
33.233035	3187.000000	
33.252757	2784.000000	
33.272478	2225.000000	
33.292199	1923.000000	
33.311921	1665.000000	
33.331642	1196.000000	
33.351363	663.000000	
33.371085	377.000000	
33.390806	224.000000	
33.410527	164.000000	
33.430249	144.000000	
33.449970	110.000000	
33.469692	98.000000	
33.489413	108.000000	
33.509134	90.000000	
33.528856	74.000000	
33.548577	61.000000	
33.568298	74.000000	
33.588020	69.000000	
33.607741	72.000000	
33.627462	69.000000	
33.647184	64.000000	
33.666905	73.000000	
33.686627	57.000000	
33.706348	61.000000	
33.726069	57.000000	
33.745791	56.000000	
33.765512	56.000000	
33.785233	56.000000	
33.804955	58.000000	
33.824676	67.000000	
33.844397	66.000000	
33.864119	56.000000	
33.883840	56.000000	
33.903562	51.000000	
33.923283	50.000000	
33.943004	47.000000	
33.962726	64.000000	
33.982447	76.000000	
34.002168	54.000000	
34.021890	58.000000	
34.041611	60.000000	
34.061332	59.000000	
34.081054	50.000000	
34.100775	42.000000	
34.120497	67.000000	
34.140218	52.000000	
34.159939	50.000000	
34.179661	59.000000	
34.199382	63.000000	
34.219103	51.000000	
34.238825	44.000000	
34.258546	55.000000	
34.278267	58.000000	
34.297989	57.000000	
34.317710	40.000000	
34.337432	60.000000	
34.357153	54.000000	
34.376874	56.000000	
34.396596	52.000000	
34.416317	50.000000	
34.436038	47.000000	
34.455760	57.000000	
34.475481	48.000000	
34.495202	61.000000	
34.514924	68.000000	
34.534645	48.000000	
34.554367	64.000000	
34.574088	60.000000	
34.593809	48.000000	
34.613531	58.000000	
34.633252	54.000000	
34.652973	37.000000	
34.672695	58.000000	
34.692416	49.000000	
34.712137	46.000000	
34.731859	53.000000	
34.751580	46.000000	
34.771302	60.000000	
34.791023	56.000000	
34.810744	43.000000	
34.830466	52.000000	
34.850187	44.000000	
34.869908	39.000000	
34.889630	48.000000	
34.909351	68.000000	
34.929072	66.000000	
34.948794	48.000000	
34.968515	54.000000	
34.988237	52.000000	
35.007958	60.000000	
35.027679	47.000000	
35.047401	52.000000	
35.067122	45.000000	
35.086843	55.000000	
35.106565	48.000000	
35.126286	40.000000	
35.146007	56.000000	
35.165729	49.000000	
35.185450	65.000000	
35.205172	41.000000	
35.224893	51.000000	
35.244614	67.000000	
35.264336	57.000000	
35.284057	60.000000	
35.303778	40.000000	
35.323500	68.000000	
35.343221	70.000000	
35.362942	90.000000	
35.382664	109.000000	
35.402385	142.000000	
35.422107	203.000000	
35.441828	275.000000	
35.461549	335.000000	
35.481271	405.000000	
35.500992	399.000000	
35.520713	345.000000	
35.540435	335.000000	
35.560156	335.000000	
35.579877	314.000000	
35.599599	275.000000	
35.619320	264.000000	
35.639042	257.000000	
35.658763	221.000000	
35.678484	207.000000	
35.698206	192.000000	
35.717927	164.000000	
35.737648	136.000000	
35.757370	132.000000	
35.777091	88.000000	
35.796812	97.000000	
35.816534	67.000000	
35.836255	53.000000	
35.855977	61.000000	
35.875698	43.000000	
35.895419	56.000000	
35.915141	52.000000	
35.934862	48.000000	
35.954583	51.000000	
35.974305	43.000000	
35.994026	58.000000	
36.013747	42.000000	
36.033469	45.000000	
36.053190	54.000000	
36.072912	47.000000	
36.092633	49.000000	
36.112354	45.000000	
36.132076	41.000000	
36.151797	54.000000	
36.171518	38.000000	
36.191240	48.000000	
36.210961	51.000000	
36.230682	44.000000	
36.250404	50.000000	
36.270125	36.000000	
36.289847	48.000000	
36.309568	40.000000	
36.329289	53.000000	
36.349011	56.000000	
36.368732	50.000000	
36.388453	57.000000	
36.408175	48.000000	
36.427896	57.000000	
36.447617	47.000000	
36.467339	36.000000	
36.487060	48.000000	
36.506782	47.000000	
36.526503	47.000000	
36.546224	48.000000	
36.565946	45.000000	
36.585667	55.000000	
36.605388	43.000000	
36.625110	49.000000	
36.644831	43.000000	
36.664552	45.000000	
36.684274	43.000000	
36.703995	68.000000	
36.723717	49.000000	
36.743438	40.000000	
36.763159	33.000000	
36.782881	32.000000	
36.802602	47.000000	
36.822323	57.000000	
36.842045	55.000000	
36.861766	44.000000	
36.881487	49.000000	
36.901209	44.000000	
36.920930	49.000000	
36.940652	39.000000	
36.960373	44.000000	
36.980094	48.000000	
36.999816	44.000000	
37.019537	41.000000	
37.039258	50.000000	
37.058980	44.000000	
37.078701	74.000000	
37.098422	51.000000	
37.118144	73.000000	
37.137865	48.000000	
37.157587	53.000000	
37.177308	64.000000	
37.197029	54.000000	
37.216751	63.000000	
37.236472	54.000000	
37.256193	56.000000	
37.275915	45.000000	
37.295636	39.000000	
37.315357	60.000000	
37.335079	63.000000	
37.354800	37.000000	
37.374522	53.000000	
37.394243	53.000000	
37.413964	54.000000	
37.433686	52.000000	
37.453407	34.000000	
37.473128	53.000000	
37.492850	46.000000	
37.512571	40.000000	
37.532292	43.000000	
37.552014	37.000000	
37.571735	46.000000	
37.591457	57.000000	
37.611178	43.000000	
37.630899	52.000000	
37.650621	41.000000	
37.670342	50.000000	
37.690063	39.000000	
37.709785	47.000000	
37.729506	25.000000	
37.749227	40.000000	
37.768949	49.000000	
37.788670	38.000000	
37.808392	41.000000	
37.828113	47.000000	
37.847834	47.000000	
37.867556	44.000000	
37.887277	35.000000	
37.906998	40.000000	
37.926720	47.000000	
37.946441	31.000000	
37.966162	44.000000	
37.985884	43.000000	
38.005605	38.000000	
38.025327	43.000000	
38.045048	46.000000	
38.064769	44.000000	
38.084491	34.000000	
38.104212	35.000000	
38.123933	41.000000	
38.143655	48.000000	
38.163376	41.000000	
38.183097	42.000000	
38.202819	51.000000	
38.222540	54.000000	
38.242262	38.000000	
38.261983	44.000000	
38.281704	44.000000	
38.301426	27.000000	
38.321147	40.000000	
38.340868	46.000000	
38.360590	41.000000	
38.380311	49.000000	
38.400032	55.000000	
38.419754	38.000000	
38.439475	37.000000	
38.459197	40.000000	
38.478918	38.000000	
38.498639	46.000000	
38.518361	45.000000	
38.538082	50.000000	
38.557803	36.000000	
38.577525	43.000000	
38.597246	35.000000	
38.616967	36.000000	
38.636689	54.000000	
38.656410	38.000000	
38.676132	44.000000	
38.695853	39.000000	
38.715574	41.000000	
38.735296	40.000000	
38.755017	58.000000	
38.774738	45.000000	
38.794460	44.000000	
38.814181	43.000000	
38.833902	47.000000	
38.853624	44.000000	
38.873345	44.000000	
38.893067	45.000000	
38.912788	43.000000	
38.932509	40.000000	
38.952231	37.000000	
38.971952	42.000000	
38.991673	35.000000	
39.011395	42.000000	
39.031116	32.000000	
39.050837	33.000000	
39.070559	46.000000	
39.090280	42.000000	
39.110002	33.000000	
39.129723	43.000000	
39.149444	45.000000	
39.169166	47.000000	
39.188887	49.000000	
39.208608	31.000000	
39.228330	48.000000	
39.248051	41.000000	
39.267772	73.000000	
39.287494	72.000000	
39.307215	75.000000	
39.326937	79.000000	
39.346658	69.000000	
39.366379	64.000000	
39.386101	59.000000	
39.405822	62.000000	
39.425543	60.000000	
39.445265	51.000000	
39.464986	43.000000	
39.484707	44.000000	
39.504429	39.000000	
39.524150	47.000000	
39.543872	47.000000	
39.563593	40.000000	
39.583314	36.000000	
39.603036	38.000000	
39.622757	39.000000	
39.642478	44.000000	
39.662200	35.000000	
39.681921	34.000000	
39.701642	38.000000	
39.721364	40.000000	
39.741085	42.000000	
39.760807	33.000000	
39.780528	37.000000	
39.800249	48.000000	
39.819971	34.000000	
39.839692	40.000000	
39.859413	34.000000	
39.879135	36.000000	
39.898856	38.000000	
39.918577	41.000000	
39.938299	38.000000	
39.958020	41.000000	
39.977742	41.000000	
39.997463	46.000000	
40.017184	42.000000	
40.036906	42.000000	
40.056627	41.000000	
40.076348	48.000000	
40.096070	37.000000	
40.115791	43.000000	
40.135512	30.000000	
40.155234	46.000000	
40.174955	32.000000	
40.194677	34.000000	
40.214398	33.000000	
40.234119	50.000000	
40.253841	45.000000	
40.273562	26.000000	
40.293283	34.000000	
40.313005	47.000000	
40.332726	43.000000	
40.352447	30.000000	
40.372169	46.000000	
40.391890	40.000000	
40.411612	33.000000	
40.431333	41.000000	
40.451054	43.000000	
40.470776	46.000000	
40.490497	43.000000	
40.510218	38.000000	
40.529940	41.000000	
40.549661	52.000000	
40.569382	38.000000	
40.589104	37.000000	
40.608825	35.000000	
40.628547	40.000000	
40.648268	54.000000	
40.667989	56.000000	
40.687711	38.000000	
40.707432	41.000000	
40.727153	52.000000	
40.746875	60.000000	
40.766596	62.000000	
40.786317	75.000000	
40.806039	91.000000	
40.825760	122.000000	
40.845482	172.000000	
40.865203	186.000000	
40.884924	192.000000	
40.904646	186.000000	
40.924367	178.000000	
40.944088	125.000000	
40.963810	142.000000	
40.983531	119.000000	
41.003252	129.000000	
41.022974	105.000000	
41.042695	92.000000	
41.062417	66.000000	
41.082138	74.000000	
41.101859	54.000000	
41.121581	47.000000	
41.141302	38.000000	
41.161023	39.000000	
41.180745	42.000000	
41.200466	35.000000	
41.220187	43.000000	
41.239909	46.000000	
41.259630	35.000000	
41.279352	34.000000	
41.299073	36.000000	
41.318794	42.000000	
41.338516	36.000000	
41.358237	34.000000	
41.377958	43.000000	
41.397680	42.000000	
41.417401	41.000000	
41.437122	34.000000	
41.456844	41.000000	
41.476565	40.000000	
41.496287	34.000000	
41.516008	30.000000	
41.535729	51.000000	
41.555451	44.000000	
41.575172	31.000000	
41.594893	54.000000	
41.614615	44.000000	
41.634336	40.000000	
41.654057	37.000000	
41.673779	31.000000	
41.693500	32.000000	
41.713222	31.000000	
41.732943	46.000000	
41.752664	29.000000	
41.772386	45.000000	
41.792107	32.000000	
41.811828	23.000000	
41.831550	36.000000	
41.851271	32.000000	
41.870992	47.000000	
41.890714	40.000000	
41.910435	40.000000	
41.930157	44.000000	
41.949878	27.000000	
41.969599	40.000000	
41.989321	41.000000	
42.009042	42.000000	
42.028763	39.000000	
42.048485	35.000000	
42.068206	26.000000	
42.087928	31.000000	
42.107649	34.000000	
42.127370	32.000000	
42.147092	35.000000	
42.166813	35.000000	
42.186534	44.000000	
42.206256	37.000000	
42.225977	38.000000	
42.245698	36.000000	
42.265420	38.000000	
42.285141	30.000000	
42.304863	42.000000	
42.324584	44.000000	
42.344305	36.000000	
42.364027	36.000000	
42.383748	38.000000	
42.403469	51.000000	
42.423191	34.000000	
42.442912	48.000000	
42.462633	43.000000	
42.482355	47.000000	
42.502076	37.000000	
42.521798	35.000000	
42.541519	29.000000	
42.561240	36.000000	
42.580962	67.000000	
42.600683	44.000000	
42.620404	32.000000	
42.640126	46.000000	
42.659847	36.000000	
42.679568	35.000000	
42.699290	35.000000	
42.719011	35.000000	
42.738733	35.000000	
42.758454	22.000000	
42.778175	40.000000	
42.797897	46.000000	
42.817618	28.000000	
42.837339	35.000000	
42.857061	35.000000	
42.876782	37.000000	
42.896503	43.000000	
42.916225	39.000000	
42.935946	28.000000	
42.955668	33.000000	
42.975389	49.000000	
42.995110	44.000000	
43.014832	52.000000	
43.034553	63.000000	
43.054274	74.000000	
43.073996	67.000000	
43.093717	62.000000	
43.113438	69.000000	
43.133160	88.000000	
43.152881	72.000000	
43.172603	65.000000	
43.192324	68.000000	
43.212045	56.000000	
43.231767	65.000000	
43.251488	48.000000	
43.271209	59.000000	
43.290931	55.000000	
43.310652	57.000000	
43.330373	46.000000	
43.350095	49.000000	
43.369816	39.000000	
43.389538	49.000000	
43.409259	39.000000	
43.428980	39.000000	
43.448702	32.000000	
43.468423	53.000000	
43.488144	52.000000	
43.507866	36.000000	
43.527587	50.000000	
43.547308	35.000000	
43.567030	40.000000	
43.586751	47.000000	
43.606473	46.000000	
43.626194	42.000000	
43.645915	48.000000	
43.665637	41.000000	
43.685358	39.000000	
43.705079	37.000000	
43.724801	46.000000	
43.744522	42.000000	
43.764243	39.000000	
43.783965	27.000000	
43.803686	33.000000	
43.823408	48.000000	
43.843129	46.000000	
43.862850	32.000000	
43.882572	40.000000	
43.902293	41.000000	
43.922014	32.000000	
43.941736	43.000000	
43.961457	35.000000	
43.981178	36.000000	
44.000900	25.000000	
44.020621	41.000000	
44.040343	46.000000	
44.060064	25.000000	
44.079785	44.000000	
44.099507	42.000000	
44.119228	37.000000	
44.138949	44.000000	
44.158671	32.000000	
44.178392	35.000000	
44.198113	35.000000	
44.217835	37.000000	
44.237556	34.000000	
44.257278	53.000000	
44.276999	39.000000	
44.296720	29.000000	
44.316442	35.000000	
44.336163	34.000000	
44.355884	34.000000	
44.375606	42.000000	
44.395327	36.000000	
44.415048	39.000000	
44.434770	32.000000	
44.454491	44.000000	
44.474213	42.000000	
44.493934	26.000000	
44.513655	36.000000	
44.533377	40.000000	
44.553098	42.000000	
44.572819	35.000000	
44.592541	30.000000	
44.612262	27.000000	
44.631983	39.000000	
44.651705	34.000000	
44.671426	26.000000	
44.691148	39.000000	
44.710869	30.000000	
44.730590	25.000000	
44.750312	43.000000	
44.770033	28.000000	
44.789754	31.000000	
44.809476	48.000000	
44.829197	26.000000	
44.848918	29.000000	
44.868640	35.000000	
44.888361	37.000000	
44.908083	38.000000	
44.927804	41.000000	
44.947525	35.000000	
44.967247	30.000000	
44.986968	35.000000	
45.006689	35.000000	
45.026411	29.000000	
45.046132	38.000000	
45.065853	32.000000	
45.085575	29.000000	
45.105296	36.000000	
45.125018	39.000000	
45.144739	36.000000	
45.164460	28.000000	
45.184182	35.000000	
45.203903	34.000000	
45.223624	36.000000	
45.243346	49.000000	
45.263067	33.000000	
45.282788	29.000000	
45.302510	30.000000	
45.322231	35.000000	
45.341953	34.000000	
45.361674	33.000000	
45.381395	27.000000	
45.401117	44.000000	
45.420838	32.000000	
45.440559	34.000000	
45.460281	31.000000	
45.480002	45.000000	
45.499723	25.000000	
45.519445	31.000000	
45.539166	47.000000	
45.558888	33.000000	
45.578609	40.000000	
45.598330	28.000000	
45.618052	25.000000	
45.637773	30.000000	
45.657494	42.000000	
45.677216	26.000000	
45.696937	43.000000	
45.716658	32.000000	
45.736380	26.000000	
45.756101	28.000000	
45.775823	40.000000	
45.795544	36.000000	
45.815265	36.000000	
45.834987	25.000000	
45.854708	41.000000	
45.874429	34.000000	
45.894151	30.000000	
45.913872	22.000000	
45.933593	27.000000	
45.953315	38.000000	
45.973036	28.000000	
45.992758	38.000000	
46.012479	31.000000	
46.032200	28.000000	
46.051922	28.000000	
46.071643	35.000000	
46.091364	29.000000	
46.111086	29.000000	
46.130807	37.000000	
46.150528	36.000000	
46.170250	24.000000	
46.189971	42.000000	
46.209693	41.000000	
46.229414	22.000000	
46.249135	33.000000	
46.268857	33.000000	
46.288578	37.000000	
46.308299	33.000000	
46.328021	28.000000	
46.347742	34.000000	
46.367463	45.000000	
46.387185	43.000000	
46.406906	32.000000	
46.426628	36.000000	
46.446349	38.000000	
46.466070	32.000000	
46.485792	27.000000	
46.505513	38.000000	
46.525234	37.000000	
46.544956	42.000000	
46.564677	35.000000	
46.584398	29.000000	
46.604120	36.000000	
46.623841	24.000000	
46.643563	34.000000	
46.663284	31.000000	
46.683005	26.000000	
46.702727	32.000000	
46.722448	29.000000	
46.742169	34.000000	
46.761891	30.000000	
46.781612	28.000000	
46.801333	30.000000	
46.821055	34.000000	
46.840776	20.000000	
46.860498	33.000000	
46.880219	44.000000	
46.899940	37.000000	
46.919662	35.000000	
46.939383	31.000000	
46.959104	32.000000	
46.978826	33.000000	
46.998547	30.000000	
47.018268	36.000000	
47.037990	25.000000	
47.057711	39.000000	
47.077433	28.000000	
47.097154	35.000000	
47.116875	40.000000	
47.136597	36.000000	
47.156318	33.000000	
47.176039	35.000000	
47.195761	33.000000	
47.215482	32.000000	
47.235203	31.000000	
47.254925	25.000000	
47.274646	32.000000	
47.294368	41.000000	
47.314089	32.000000	
47.333810	33.000000	
47.353532	37.000000	
47.373253	37.000000	
47.392974	36.000000	
47.412696	40.000000	
47.432417	38.000000	
47.452138	33.000000	
47.471860	28.000000	
47.491581	33.000000	
47.511303	30.000000	
47.531024	34.000000	
47.550745	34.000000	
47.570467	28.000000	
47.590188	37.000000	
47.609909	24.000000	
47.629631	39.000000	
47.649352	40.000000	
47.669073	26.000000	
47.688795	49.000000	
47.708516	27.000000	
47.728238	46.000000	
47.747959	25.000000	
47.767680	45.000000	
47.787402	37.000000	
47.807123	35.000000	
47.826844	34.000000	
47.846566	31.000000	
47.866287	25.000000	
47.886008	43.000000	
47.905730	38.000000	
47.925451	38.000000	
47.945173	27.000000	
47.964894	33.000000	
47.984615	32.000000	
48.004337	37.000000	
48.024058	29.000000	
48.043779	38.000000	
48.063501	33.000000	
48.083222	29.000000	
48.102943	45.000000	
48.122665	32.000000	
48.142386	36.000000	
48.162108	50.000000	
48.181829	36.000000	
48.201550	38.000000	
48.221272	30.000000	
48.240993	24.000000	
48.260714	43.000000	
48.280436	38.000000	
48.300157	32.000000	
48.319878	37.000000	
48.339600	31.000000	
48.359321	37.000000	
48.379043	29.000000	
48.398764	36.000000	
48.418485	35.000000	
48.438207	28.000000	
48.457928	27.000000	
48.477649	39.000000	
48.497371	28.000000	
48.517092	40.000000	
48.536813	38.000000	
48.556535	26.000000	
48.576256	31.000000	
48.595978	30.000000	
48.615699	34.000000	
48.635420	25.000000	
48.655142	46.000000	
48.674863	39.000000	
48.694584	33.000000	
48.714306	28.000000	
48.734027	41.000000	
48.753748	28.000000	
48.773470	36.000000	
48.793191	26.000000	
48.812913	26.000000	
48.832634	33.000000	
48.852355	33.000000	
48.872077	36.000000	
48.891798	37.000000	
48.911519	31.000000	
48.931241	35.000000	
48.950962	32.000000	
48.970683	37.000000	
48.990405	39.000000	
49.010126	36.000000	
49.029848	36.000000	
49.049569	34.000000	
49.069290	32.000000	
49.089012	34.000000	
49.108733	42.000000	
49.128454	36.000000	
49.148176	38.000000	
49.167897	44.000000	
49.187618	32.000000	
49.207340	55.000000	
49.227061	46.000000	
49.246783	56.000000	
49.266504	58.000000	
49.286225	77.000000	
49.305947	72.000000	
49.325668	98.000000	
49.345389	162.000000	
49.365111	172.000000	
49.384832	246.000000	
49.404553	291.000000	
49.424275	373.000000	
49.443996	392.000000	
49.463718	446.000000	
49.483439	447.000000	
49.503160	449.000000	
49.522882	416.000000	
49.542603	331.000000	
49.562324	304.000000	
49.582046	254.000000	
49.601767	260.000000	
49.621488	212.000000	
49.641210	198.000000	
49.660931	156.000000	
49.680653	125.000000	
49.700374	98.000000	
49.720095	63.000000	
49.739817	57.000000	
49.759538	41.000000	
49.779259	39.000000	
49.798981	41.000000	
49.818702	35.000000	
49.838423	38.000000	
49.858145	32.000000	
49.877866	38.000000	
49.897588	42.000000	
49.917309	33.000000	
49.937030	44.000000	
49.956752	36.000000	
49.976473	43.000000	
49.996194	28.000000	
50.015916	42.000000	
50.035637	31.000000	
50.055358	42.000000	
50.075080	37.000000	
50.094801	34.000000	
50.114523	35.000000	
50.134244	33.000000	
50.153965	34.000000	
50.173687	59.000000	
50.193408	34.000000	
50.213129	36.000000	
50.232851	33.000000	
50.252572	31.000000	
50.272293	32.000000	
50.292015	32.000000	
50.311736	33.000000	
50.331458	33.000000	
50.351179	38.000000	
50.370900	29.000000	
50.390622	43.000000	
50.410343	37.000000	
50.430064	28.000000	
50.449786	37.000000	
50.469507	39.000000	
50.489228	35.000000	
50.508950	22.000000	
50.528671	35.000000	
50.548393	29.000000	
50.568114	36.000000	
50.587835	39.000000	
50.607557	37.000000	
50.627278	23.000000	
50.646999	37.000000	
50.666721	33.000000	
50.686442	29.000000	
50.706163	32.000000	
50.725885	28.000000	
50.745606	32.000000	
50.765328	39.000000	
50.785049	27.000000	
50.804770	39.000000	
50.824492	33.000000	
50.844213	34.000000	
50.863934	33.000000	
50.883656	33.000000	
50.903377	35.000000	
50.923099	31.000000	
50.942820	35.000000	
50.962541	25.000000	
50.982263	29.000000	
51.001984	25.000000	
51.021705	26.000000	
51.041427	32.000000	
51.061148	27.000000	
51.080869	35.000000	
51.100591	28.000000	
51.120312	39.000000	
51.140034	32.000000	
51.159755	34.000000	
51.179476	33.000000	
51.199198	32.000000	
51.218919	37.000000	
51.238640	29.000000	
51.258362	36.000000	
51.278083	31.000000	
51.297804	27.000000	
51.317526	38.000000	
51.337247	37.000000	
51.356969	43.000000	
51.376690	27.000000	
51.396411	49.000000	
51.416133	24.000000	
51.435854	34.000000	
51.455575	34.000000	
51.475297	30.000000	
51.495018	31.000000	
51.514739	25.000000	
51.534461	27.000000	
51.554182	36.000000	
51.573904	30.000000	
51.593625	34.000000	
51.613346	28.000000	
51.633068	34.000000	
51.652789	36.000000	
51.672510	19.000000	
51.692232	32.000000	
51.711953	44.000000	
51.731674	34.000000	
51.751396	30.000000	
51.771117	34.000000	
51.790839	42.000000	
51.810560	37.000000	
51.830281	23.000000	
51.850003	24.000000	
51.869724	30.000000	
51.889445	35.000000	
51.909167	41.000000	
51.928888	37.000000	
51.948609	29.000000	
51.968331	34.000000	
51.988052	34.000000	
52.007774	34.000000	
52.027495	40.000000	
52.047216	34.000000	
52.066938	29.000000	
52.086659	31.000000	
52.106380	47.000000	
52.126102	31.000000	
52.145823	41.000000	
52.165544	30.000000	
52.185266	27.000000	
52.204987	35.000000	
52.224709	33.000000	
52.244430	24.000000	
52.264151	38.000000	
52.283873	41.000000	
52.303594	32.000000	
52.323315	39.000000	
52.343037	49.000000	
52.362758	36.000000	
52.382479	35.000000	
52.402201	32.000000	
52.421922	44.000000	
52.441644	27.000000	
52.461365	31.000000	
52.481086	25.000000	
52.500808	39.000000	
52.520529	34.000000	
52.540250	35.000000	
52.559972	25.000000	
52.579693	34.000000	
52.599414	38.000000	
52.619136	28.000000	
52.638857	28.000000	
52.658579	29.000000	
52.678300	28.000000	
52.698021	38.000000	
52.717743	44.000000	
52.737464	36.000000	
52.757185	37.000000	
52.776907	34.000000	
52.796628	28.000000	
52.816349	33.000000	
52.836071	30.000000	
52.855792	54.000000	
52.875514	36.000000	
52.895235	32.000000	
52.914956	21.000000	
52.934678	31.000000	
52.954399	41.000000	
52.974120	48.000000	
52.993842	33.000000	
53.013563	25.000000	
53.033284	44.000000	
53.053006	28.000000	
53.072727	37.000000	
53.092449	37.000000	
53.112170	34.000000	
53.131891	21.000000	
53.151613	31.000000	
53.171334	40.000000	
53.191055	34.000000	
53.210777	32.000000	
53.230498	35.000000	
53.250219	29.000000	
53.269941	45.000000	
53.289662	34.000000	
53.309384	36.000000	
53.329105	35.000000	
53.348826	39.000000	
53.368548	40.000000	
53.388269	52.000000	
53.407990	39.000000	
53.427712	48.000000	
53.447433	46.000000	
53.467154	46.000000	
53.486876	55.000000	
53.506597	40.000000	
53.526319	41.000000	
53.546040	58.000000	
53.565761	63.000000	
53.585483	43.000000	
53.605204	69.000000	
53.624925	36.000000	
53.644647	47.000000	
53.664368	39.000000	
53.684089	42.000000	
53.703811	53.000000	
53.723532	40.000000	
53.743254	55.000000	
53.762975	42.000000	
53.782696	53.000000	
53.802418	44.000000	
53.822139	51.000000	
53.841860	49.000000	
53.861582	67.000000	
53.881303	49.000000	
53.901024	83.000000	
53.920746	120.000000	
53.940467	150.000000	
53.960189	190.000000	
53.979910	266.000000	
53.999631	320.000000	
54.019353	370.000000	
54.039074	407.000000	
54.058795	449.000000	
54.078517	455.000000	
54.098238	444.000000	
54.117959	410.000000	
54.137681	364.000000	
54.157402	373.000000	
54.177124	329.000000	
54.196845	270.000000	
54.216566	274.000000	
54.236288	239.000000	
54.256009	186.000000	
54.275730	189.000000	
54.295452	140.000000	
54.315173	112.000000	
54.334894	90.000000	
54.354616	59.000000	
54.374337	40.000000	
54.394059	56.000000	
54.413780	44.000000	
54.433501	30.000000	
54.453223	48.000000	
54.472944	35.000000	
54.492665	44.000000	
54.512387	50.000000	
54.532108	47.000000	
54.551829	42.000000	
54.571551	42.000000	
54.591272	34.000000	
54.610994	37.000000	
54.630715	35.000000	
54.650436	31.000000	
54.670158	35.000000	
54.689879	40.000000	
54.709600	31.000000	
54.729322	29.000000	
54.749043	30.000000	
54.768764	32.000000	
54.788486	39.000000	
54.808207	29.000000	
54.827929	22.000000	
54.847650	39.000000	
54.867371	40.000000	
54.887093	47.000000	
54.906814	35.000000	
54.926535	35.000000	
54.946257	26.000000	
54.965978	38.000000	
54.985699	32.000000	
55.005421	43.000000	
55.025142	35.000000	
55.044864	35.000000	
55.064585	40.000000	
55.084306	31.000000	
55.104028	30.000000	
55.123749	30.000000	
55.143470	32.000000	
55.163192	48.000000	
55.182913	38.000000	
55.202634	34.000000	
55.222356	29.000000	
55.242077	34.000000	
55.261799	36.000000	
55.281520	30.000000	
55.301241	37.000000	
55.320963	36.000000	
55.340684	23.000000	
55.360405	23.000000	
55.380127	38.000000	
55.399848	33.000000	
55.419569	23.000000	
55.439291	38.000000	
55.459012	34.000000	
55.478734	29.000000	
55.498455	43.000000	
55.518176	37.000000	
55.537898	39.000000	
55.557619	41.000000	
55.577340	40.000000	
55.597062	38.000000	
55.616783	40.000000	
55.636504	39.000000	
55.656226	27.000000	
55.675947	28.000000	
55.695669	33.000000	
55.715390	35.000000	
55.735111	47.000000	
55.754833	45.000000	
55.774554	26.000000	
55.794275	23.000000	
55.813997	39.000000	
55.833718	28.000000	
55.853439	45.000000	
55.873161	40.000000	
55.892882	34.000000	
55.912604	33.000000	
55.932325	42.000000	
55.952046	44.000000	
55.971768	47.000000	
55.991489	59.000000	
56.011210	34.000000	
56.030932	28.000000	
56.050653	37.000000	
56.070374	36.000000	
56.090096	35.000000	
56.109817	47.000000	
56.129539	35.000000	
56.149260	28.000000	
56.168981	27.000000	
56.188703	36.000000	
56.208424	35.000000	
56.228145	32.000000	
56.247867	42.000000	
56.267588	35.000000	
56.287309	39.000000	
56.307031	38.000000	
56.326752	47.000000	
56.346474	35.000000	
56.366195	38.000000	
56.385916	38.000000	
56.405638	37.000000	
56.425359	49.000000	
56.445080	37.000000	
56.464802	29.000000	
56.484523	43.000000	
56.504244	37.000000	
56.523966	29.000000	
56.543687	30.000000	
56.563409	31.000000	
56.583130	35.000000	
56.602851	33.000000	
56.622573	36.000000	
56.642294	29.000000	
56.662015	34.000000	
56.681737	44.000000	
56.701458	35.000000	
56.721179	47.000000	
56.740901	50.000000	
56.760622	43.000000	
56.780344	32.000000	
56.800065	50.000000	
56.819786	48.000000	
56.839508	67.000000	
56.859229	58.000000	
56.878950	60.000000	
56.898672	84.000000	
56.918393	112.000000	
56.938114	96.000000	
56.957836	97.000000	
56.977557	91.000000	
56.997279	128.000000	
57.017000	106.000000	
57.036721	114.000000	
57.056443	94.000000	
57.076164	96.000000	
57.095885	89.000000	
57.115607	84.000000	
57.135328	82.000000	
57.155049	76.000000	
57.174771	88.000000	
57.194492	78.000000	
57.214214	83.000000	
57.233935	58.000000	
57.253656	69.000000	
57.273378	44.000000	
57.293099	54.000000	
57.312820	50.000000	
57.332542	53.000000	
57.352263	62.000000	
57.371984	53.000000	
57.391706	45.000000	
57.411427	55.000000	
57.431149	82.000000	
57.450870	84.000000	
57.470591	99.000000	
57.490313	114.000000	
57.510034	122.000000	
57.529755	123.000000	
57.549477	173.000000	
57.569198	172.000000	
57.588919	150.000000	
57.608641	178.000000	
57.628362	149.000000	
57.648084	133.000000	
57.667805	125.000000	
57.687526	128.000000	
57.707248	130.000000	
57.726969	95.000000	
57.746690	106.000000	
57.766412	98.000000	
57.786133	91.000000	
57.805854	84.000000	
57.825576	66.000000	
57.845297	66.000000	
57.865019	55.000000	
57.884740	41.000000	
57.904461	52.000000	
57.924183	55.000000	
57.943904	40.000000	
57.963625	48.000000	
57.983347	26.000000	
58.003068	46.000000	
58.022789	31.000000	
58.042511	41.000000	
58.062232	47.000000	
58.081954	44.000000	
58.101675	40.000000	
58.121396	50.000000	
58.141118	43.000000	
58.160839	46.000000	
58.180560	40.000000	
58.200282	41.000000	
58.220003	46.000000	
58.239724	40.000000	
58.259446	42.000000	
58.279167	46.000000	
58.298889	38.000000	
58.318610	32.000000	
58.338331	40.000000	
58.358053	37.000000	
58.377774	62.000000	
58.397495	46.000000	
58.417217	36.000000	
58.436938	40.000000	
58.456659	40.000000	
58.476381	34.000000	
58.496102	43.000000	
58.515824	45.000000	
58.535545	34.000000	
58.555266	40.000000	
58.574988	42.000000	
58.594709	51.000000	
58.614430	35.000000	
58.634152	53.000000	
58.653873	46.000000	
58.673594	40.000000	
58.693316	36.000000	
58.713037	36.000000	
58.732759	45.000000	
58.752480	38.000000	
58.772201	42.000000	
58.791923	43.000000	
58.811644	40.000000	
58.831365	41.000000	
58.851087	46.000000	
58.870808	42.000000	
58.890529	38.000000	
58.910251	34.000000	
58.929972	40.000000	
58.949694	32.000000	
58.969415	57.000000	
58.989136	54.000000	
59.008858	33.000000	
59.028579	46.000000	
59.048300	54.000000	
59.068022	38.000000	
59.087743	42.000000	
59.107464	38.000000	
59.127186	42.000000	
59.146907	40.000000	
59.166629	46.000000	
59.186350	44.000000	
59.206071	43.000000	
59.225793	46.000000	
59.245514	50.000000	
59.265235	52.000000	
59.284957	34.000000	
59.304678	48.000000	
59.324399	37.000000	
59.344121	42.000000	
59.363842	42.000000	
59.383564	36.000000	
59.403285	47.000000	
59.423006	38.000000	
59.442728	49.000000	
59.462449	41.000000	
59.482170	44.000000	
59.501892	39.000000	
59.521613	54.000000	
59.541334	51.000000	
59.561056	47.000000	
59.580777	43.000000	
59.600499	46.000000	
59.620220	57.000000	
59.639941	44.000000	
59.659663	42.000000	
59.679384	47.000000	
59.699105	46.000000	
59.718827	43.000000	
59.738548	45.000000	
59.758270	45.000000	
59.777991	43.000000	
59.797712	40.000000	
59.817434	38.000000	
59.837155	49.000000	
59.856876	51.000000	
59.876598	55.000000	
59.896319	54.000000	
59.916040	48.000000	
59.935762	44.000000	
59.955483	47.000000	
59.975205	58.000000	
59.994926	42.000000	
60.014647	39.000000	
60.034369	65.000000	
60.054090	45.000000	
60.073811	54.000000	
60.093533	58.000000	
60.113254	36.000000	
60.132975	58.000000	
60.152697	47.000000	
60.172418	38.000000	
60.192140	46.000000	
60.211861	39.000000	
60.231582	58.000000	
60.251304	54.000000	
60.271025	56.000000	
60.290746	52.000000	
60.310468	51.000000	
60.330189	48.000000	
60.349910	55.000000	
60.369632	53.000000	
60.389353	39.000000	
60.409075	56.000000	
60.428796	55.000000	
60.448517	44.000000	
60.468239	60.000000	
60.487960	54.000000	
60.507681	40.000000	
60.527403	48.000000	
60.547124	57.000000	
60.566845	47.000000	
60.586567	54.000000	
60.606288	48.000000	
60.626010	47.000000	
60.645731	54.000000	
60.665452	54.000000	
60.685174	60.000000	
60.704895	51.000000	
60.724616	53.000000	
60.744338	55.000000	
60.764059	48.000000	
60.783780	61.000000	
60.803502	68.000000	
60.823223	42.000000	
60.842945	38.000000	
60.862666	56.000000	
60.882387	52.000000	
60.902109	49.000000	
60.921830	60.000000	
60.941551	51.000000	
60.961273	55.000000	
60.980994	65.000000	
61.000715	66.000000	
61.020437	44.000000	
61.040158	52.000000	
61.059880	49.000000	
61.079601	56.000000	
61.099322	57.000000	
61.119044	64.000000	
61.138765	56.000000	
61.158486	55.000000	
61.178208	55.000000	
61.197929	52.000000	
61.217650	52.000000	
61.237372	50.000000	
61.257093	55.000000	
61.276815	42.000000	
61.296536	56.000000	
61.316257	63.000000	
61.335979	60.000000	
61.355700	57.000000	
61.375421	51.000000	
61.395143	51.000000	
61.414864	62.000000	
61.434585	55.000000	
61.454307	50.000000	
61.474028	50.000000	
61.493750	56.000000	
61.513471	56.000000	
61.533192	69.000000	
61.552914	59.000000	
61.572635	69.000000	
61.592356	45.000000	
61.612078	58.000000	
61.631799	66.000000	
61.651520	50.000000	
61.671242	69.000000	
61.690963	51.000000	
61.710685	50.000000	
61.730406	44.000000	
61.750127	65.000000	
61.769849	52.000000	
61.789570	60.000000	
61.809291	55.000000	
61.829013	61.000000	
61.848734	65.000000	
61.868455	75.000000	
61.888177	61.000000	
61.907898	60.000000	
61.927620	69.000000	
61.947341	44.000000	
61.967062	77.000000	
61.986784	56.000000	
62.006505	59.000000	
62.026226	72.000000	
62.045948	53.000000	
62.065669	70.000000	
62.085390	66.000000	
62.105112	72.000000	
62.124833	60.000000	
62.144555	76.000000	
62.164276	80.000000	
62.183997	73.000000	
62.203719	82.000000	
62.223440	78.000000	
62.243161	88.000000	
62.262883	103.000000	
62.282604	101.000000	
62.302325	121.000000	
62.322047	150.000000	
62.341768	134.000000	
62.361490	167.000000	
62.381211	201.000000	
62.400932	206.000000	
62.420654	234.000000	
62.440375	204.000000	
62.460096	213.000000	
62.479818	223.000000	
62.499539	236.000000	
62.519260	214.000000	
62.538982	195.000000	
62.558703	188.000000	
62.578425	211.000000	
62.598146	196.000000	
62.617867	191.000000	
62.637589	180.000000	
62.657310	147.000000	
62.677031	175.000000	
62.696753	147.000000	
62.716474	128.000000	
62.736195	95.000000	
62.755917	110.000000	
62.775638	102.000000	
62.795360	86.000000	
62.815081	100.000000	
62.834802	85.000000	
62.854524	68.000000	
62.874245	87.000000	
62.893966	91.000000	
62.913688	88.000000	
62.933409	75.000000	
62.953130	91.000000	
62.972852	76.000000	
62.992573	89.000000	
63.012295	79.000000	
63.032016	62.000000	
63.051737	68.000000	
63.071459	72.000000	
63.091180	65.000000	
63.110901	69.000000	
63.130623	92.000000	
63.150344	81.000000	
63.170065	75.000000	
63.189787	93.000000	
63.209508	60.000000	
63.229230	72.000000	
63.248951	56.000000	
63.268672	64.000000	
63.288394	65.000000	
63.308115	55.000000	
63.327836	97.000000	
63.347558	63.000000	
63.367279	63.000000	
63.387000	56.000000	
63.406722	79.000000	
63.426443	65.000000	
63.446165	65.000000	
63.465886	72.000000	
63.485607	73.000000	
63.505329	76.000000	
63.525050	78.000000	
63.544771	78.000000	
63.564493	72.000000	
63.584214	74.000000	
63.603935	74.000000	
63.623657	78.000000	
63.643378	60.000000	
63.663100	69.000000	
63.682821	58.000000	
63.702542	97.000000	
63.722264	65.000000	
63.741985	73.000000	
63.761706	73.000000	
63.781428	73.000000	
63.801149	84.000000	
63.820870	81.000000	
63.840592	85.000000	
63.860313	73.000000	
63.880035	82.000000	
63.899756	81.000000	
63.919477	78.000000	
63.939199	89.000000	
63.958920	95.000000	
63.978641	98.000000	
63.998363	99.000000	
64.018084	101.000000	
64.037805	93.000000	
64.057527	85.000000	
64.077248	88.000000	
64.096970	104.000000	
64.116691	84.000000	
64.136412	95.000000	
64.156134	77.000000	
64.175855	90.000000	
64.195576	89.000000	
64.215298	82.000000	
64.235019	83.000000	
64.254740	69.000000	
64.274462	64.000000	
64.294183	90.000000	
64.313905	68.000000	
64.333626	76.000000	
64.353347	91.000000	
64.373069	80.000000	
64.392790	84.000000	
64.412511	83.000000	
64.432233	69.000000	
64.451954	79.000000	
64.471675	70.000000	
64.491397	71.000000	
64.511118	78.000000	
64.530840	67.000000	
64.550561	73.000000	
64.570282	78.000000	
64.590004	60.000000	
64.609725	76.000000	
64.629446	76.000000	
64.649168	75.000000	
64.668889	76.000000	
64.688610	70.000000	
64.708332	76.000000	
64.728053	83.000000	
64.747775	86.000000	
64.767496	77.000000	
64.787217	104.000000	
64.806939	78.000000	
64.826660	84.000000	
64.846381	83.000000	
64.866103	88.000000	
64.885824	76.000000	
64.905545	82.000000	
64.925267	75.000000	
64.944988	83.000000	
64.964710	73.000000	
64.984431	95.000000	
65.004152	79.000000	
65.023874	99.000000	
65.043595	88.000000	
65.063316	63.000000	
65.083038	67.000000	
65.102759	82.000000	
65.122480	78.000000	
65.142202	91.000000	
65.161923	84.000000	
65.181645	86.000000	
65.201366	92.000000	
65.221087	82.000000	
65.240809	72.000000	
65.260530	76.000000	
65.280251	62.000000	
65.299973	72.000000	
65.319694	102.000000	
65.339415	98.000000	
65.359137	79.000000	
65.378858	60.000000	
65.398580	72.000000	
65.418301	99.000000	
65.438022	90.000000	
65.457744	101.000000	
65.477465	76.000000	
65.497186	77.000000	
65.516908	81.000000	
65.536629	79.000000	
65.556350	80.000000	
65.576072	110.000000	
65.595793	85.000000	
65.615515	72.000000	
65.635236	89.000000	
65.654957	91.000000	
65.674679	85.000000	
65.694400	87.000000	
65.714121	117.000000	
65.733843	84.000000	
65.753564	85.000000	
65.773285	77.000000	
65.793007	71.000000	
65.812728	83.000000	
65.832450	88.000000	
65.852171	85.000000	
65.871892	95.000000	
65.891614	86.000000	
65.911335	85.000000	
65.931056	87.000000	
65.950778	88.000000	
65.970499	113.000000	
65.990220	107.000000	
66.009942	99.000000	
66.029663	107.000000	
66.049385	98.000000	
66.069106	94.000000	
66.088827	84.000000	
66.108549	86.000000	
66.128270	97.000000	
66.147991	94.000000	
66.167713	97.000000	
66.187434	88.000000	
66.207155	94.000000	
66.226877	84.000000	
66.246598	101.000000	
66.266320	99.000000	
66.286041	95.000000	
66.305762	91.000000	
66.325484	104.000000	
66.345205	87.000000	
66.364926	89.000000	
66.384648	89.000000	
66.404369	82.000000	
66.424090	101.000000	
66.443812	84.000000	
66.463533	84.000000	
66.483255	88.000000	
66.502976	85.000000	
66.522697	95.000000	
66.542419	86.000000	
66.562140	99.000000	
66.581861	95.000000	
66.601583	98.000000	
66.621304	92.000000	
66.641025	97.000000	
66.660747	104.000000	
66.680468	107.000000	
66.700190	88.000000	
66.719911	92.000000	
66.739632	92.000000	
66.759354	92.000000	
66.779075	88.000000	
66.798796	94.000000	
66.818518	93.000000	
66.838239	97.000000	
66.857960	85.000000	
66.877682	96.000000	
66.897403	95.000000	
66.917125	91.000000	
66.936846	82.000000	
66.956567	103.000000	
66.976289	101.000000	
66.996010	109.000000	
67.015731	94.000000	
67.035453	91.000000	
67.055174	76.000000	
67.074895	99.000000	
67.094617	96.000000	
67.114338	94.000000	
67.134060	92.000000	
67.153781	100.000000	
67.173502	84.000000	
67.193224	95.000000	
67.212945	98.000000	
67.232666	101.000000	
67.252388	83.000000	
67.272109	76.000000	
67.291830	91.000000	
67.311552	111.000000	
67.331273	103.000000	
67.350995	81.000000	
67.370716	93.000000	
67.390437	105.000000	
67.410159	94.000000	
67.429880	97.000000	
67.449601	84.000000	
67.469323	100.000000	
67.489044	94.000000	
67.508765	103.000000	
67.528487	96.000000	
67.548208	84.000000	
67.567930	85.000000	
67.587651	93.000000	
67.607372	103.000000	
67.627094	100.000000	
67.646815	107.000000	
67.666536	106.000000	
67.686258	81.000000	
67.705979	98.000000	
67.725700	108.000000	
67.745422	96.000000	
67.765143	86.000000	
67.784865	105.000000	
67.804586	97.000000	
67.824307	87.000000	
67.844029	96.000000	
67.863750	119.000000	
67.883471	113.000000	
67.903193	102.000000	
67.922914	84.000000	
67.942635	113.000000	
67.962357	89.000000	
67.982078	100.000000	
68.001800	99.000000	
68.021521	126.000000	
68.041242	94.000000	
68.060964	118.000000	
68.080685	108.000000	
68.100406	104.000000	
68.120128	109.000000	
68.139849	109.000000	
68.159570	98.000000	
68.179292	120.000000	
68.199013	90.000000	
68.218735	116.000000	
68.238456	93.000000	
68.258177	109.000000	
68.277899	105.000000	
68.297620	96.000000	
68.317341	116.000000	
68.337063	112.000000	
68.356784	107.000000	
68.376505	96.000000	
68.396227	106.000000	
68.415948	79.000000	
68.435670	126.000000	
68.455391	114.000000	
68.475112	100.000000	
68.494834	105.000000	
68.514555	109.000000	
68.534276	113.000000	
68.553998	95.000000	
68.573719	86.000000	
68.593441	110.000000	
68.613162	109.000000	
68.632883	95.000000	
68.652605	113.000000	
68.672326	96.000000	
68.692047	109.000000	
68.711769	94.000000	
68.731490	92.000000	
68.751211	119.000000	
68.770933	99.000000	
68.790654	120.000000	
68.810376	88.000000	
68.830097	100.000000	
68.849818	119.000000	
68.869540	100.000000	
68.889261	98.000000	
68.908982	119.000000	
68.928704	102.000000	
68.948425	89.000000	
68.968146	131.000000	
68.987868	102.000000	
69.007589	93.000000	
69.027311	111.000000	
69.047032	112.000000	
69.066753	113.000000	
69.086475	92.000000	
69.106196	122.000000	
69.125917	119.000000	
69.145639	126.000000	
69.165360	107.000000	
69.185081	117.000000	
69.204803	117.000000	
69.224524	111.000000	
69.244246	120.000000	
69.263967	112.000000	
69.283688	115.000000	
69.303410	114.000000	
69.323131	112.000000	
69.342852	105.000000	
69.362574	124.000000	
69.382295	114.000000	
69.402016	102.000000	
69.421738	110.000000	
69.441459	114.000000	
69.461181	115.000000	
69.480902	118.000000	
69.500623	137.000000	
69.520345	132.000000	
69.540066	119.000000	
69.559787	126.000000	
69.579509	153.000000	
69.599230	134.000000	
69.618951	150.000000	
69.638673	142.000000	
69.658394	130.000000	
69.678116	131.000000	
69.697837	153.000000	
69.717558	127.000000	
69.737280	127.000000	
69.757001	122.000000	
69.776722	111.000000	
69.796444	129.000000	
69.816165	130.000000	
69.835886	107.000000	
69.855608	145.000000	
69.875329	98.000000	
69.895051	120.000000	
69.914772	114.000000	
69.934493	123.000000	
69.954215	113.000000	
69.973936	125.000000	
69.993657	125.000000	
70.013379	103.000000	
70.033100	103.000000	
70.052821	108.000000	
70.072543	111.000000	
70.092264	111.000000	
70.111986	112.000000	
70.131707	102.000000	
70.151428	125.000000	
70.171150	112.000000	
70.190871	120.000000	
70.210592	98.000000	
70.230314	106.000000	
70.250035	108.000000	
70.269756	128.000000	
70.289478	96.000000	
70.309199	103.000000	
70.328921	114.000000	
70.348642	132.000000	
70.368363	111.000000	
70.388085	115.000000	
70.407806	112.000000	
70.427527	114.000000	
70.447249	104.000000	
70.466970	107.000000	
70.486691	99.000000	
70.506413	110.000000	
70.526134	112.000000	
70.545856	128.000000	
70.565577	111.000000	
70.585298	114.000000	
70.605020	118.000000	
70.624741	93.000000	
70.644462	96.000000	
70.664184	109.000000	
70.683905	135.000000	
70.703626	118.000000	
70.723348	123.000000	
70.743069	95.000000	
70.762791	116.000000	
70.782512	102.000000	
70.802233	108.000000	
70.821955	140.000000	
70.841676	143.000000	
70.861397	124.000000	
70.881119	125.000000	
70.900840	110.000000	
70.920561	117.000000	
70.940283	133.000000	
70.960004	141.000000	
70.979726	117.000000	
70.999447	127.000000	
71.019168	117.000000	
71.038890	104.000000	
71.058611	125.000000	
71.078332	96.000000	
71.098054	113.000000	
71.117775	102.000000	
71.137496	129.000000	
71.157218	137.000000	
71.176939	125.000000	
71.196661	130.000000	
71.216382	118.000000	
71.236103	132.000000	
71.255825	117.000000	
71.275546	119.000000	
71.295267	125.000000	
71.314989	106.000000	
71.334710	117.000000	
71.354431	135.000000	
71.374153	113.000000	
71.393874	119.000000	
71.413596	113.000000	
71.433317	100.000000	
71.453038	110.000000	
71.472760	120.000000	
71.492481	102.000000	
71.512202	129.000000	
71.531924	118.000000	
71.551645	115.000000	
71.571366	131.000000	
71.591088	125.000000	
71.610809	121.000000	
71.630531	118.000000	
71.650252	134.000000	
71.669973	135.000000	
71.689695	133.000000	
71.709416	149.000000	
71.729137	119.000000	
71.748859	147.000000	
71.768580	174.000000	
71.788301	164.000000	
71.808023	193.000000	
71.827744	216.000000	
71.847466	230.000000	
71.867187	223.000000	
71.886908	220.000000	
71.906630	239.000000	
71.926351	217.000000	
71.946072	213.000000	
71.965794	209.000000	
71.985515	206.000000	
72.005236	192.000000	
72.024958	183.000000	
72.044679	196.000000	
72.064401	194.000000	
72.084122	158.000000	
72.103843	199.000000	
72.123565	188.000000	
72.143286	197.000000	
72.163007	187.000000	
72.182729	157.000000	
72.202450	166.000000	
72.222171	166.000000	
72.241893	156.000000	
72.261614	171.000000	
72.281336	151.000000	
72.301057	146.000000	
72.320778	129.000000	
72.340500	138.000000	
72.360221	126.000000	
72.379942	130.000000	
72.399664	117.000000	
72.419385	140.000000	
72.439106	141.000000	
72.458828	123.000000	
72.478549	111.000000	
72.498271	125.000000	
72.517992	127.000000	
72.537713	97.000000	
72.557435	130.000000	
72.577156	138.000000	
72.596877	117.000000	
72.616599	127.000000	
72.636320	110.000000	
72.656041	95.000000	
72.675763	93.000000	
72.695484	111.000000	
72.715206	109.000000	
72.734927	106.000000	
72.754648	107.000000	
72.774370	115.000000	
72.794091	118.000000	
72.813812	114.000000	
72.833534	108.000000	
72.853255	121.000000	
72.872976	120.000000	
72.892698	116.000000	
72.912419	102.000000	
72.932141	115.000000	
72.951862	129.000000	
72.971583	113.000000	
72.991305	107.000000	
73.011026	117.000000	
73.030747	124.000000	
73.050469	94.000000	
73.070190	130.000000	
73.089911	111.000000	
73.109633	101.000000	
73.129354	121.000000	
73.149076	127.000000	
73.168797	105.000000	
73.188518	107.000000	
73.208240	120.000000	
73.227961	119.000000	
73.247682	103.000000	
73.267404	108.000000	
73.287125	138.000000	
73.306846	114.000000	
73.326568	105.000000	
73.346289	119.000000	
73.366011	139.000000	
73.385732	133.000000	
73.405453	127.000000	
73.425175	116.000000	
73.444896	107.000000	
73.464617	121.000000	
73.484339	118.000000	
73.504060	120.000000	
73.523781	115.000000	
73.543503	106.000000	
73.563224	115.000000	
73.582946	130.000000	
73.602667	134.000000	
73.622388	132.000000	
73.642110	127.000000	
73.661831	113.000000	
73.681552	127.000000	
73.701274	111.000000	
73.720995	121.000000	
73.740716	133.000000	
73.760438	128.000000	
73.780159	100.000000	
73.799881	132.000000	
73.819602	122.000000	
73.839323	125.000000	
73.859045	120.000000	
73.878766	135.000000	
73.898487	153.000000	
73.918209	99.000000	
73.937930	147.000000	
73.957651	140.000000	
73.977373	125.000000	
73.997094	139.000000	
74.016816	129.000000	
74.036537	145.000000	
74.056258	118.000000	
74.075980	144.000000	
74.095701	121.000000	
74.115422	124.000000	
74.135144	130.000000	
74.154865	134.000000	
74.174586	129.000000	
74.194308	110.000000	
74.214029	122.000000	
74.233751	126.000000	
74.253472	135.000000	
74.273193	128.000000	
74.292915	108.000000	
74.312636	156.000000	
74.332357	130.000000	
74.352079	117.000000	
74.371800	106.000000	
74.391521	120.000000	
74.411243	113.000000	
74.430964	105.000000	
74.450686	131.000000	
74.470407	119.000000	
74.490128	123.000000	
74.509850	121.000000	
74.529571	115.000000	
74.549292	105.000000	
74.569014	118.000000	
74.588735	127.000000	
74.608456	106.000000	
74.628178	123.000000	
74.647899	117.000000	
74.667621	109.000000	
74.687342	110.000000	
74.707063	107.000000	
74.726785	116.000000	
74.746506	127.000000	
74.766227	121.000000	
74.785949	106.000000	
74.805670	119.000000	
74.825391	117.000000	
74.845113	120.000000	
74.864834	122.000000	
74.884556	126.000000	
74.904277	122.000000	
74.923998	119.000000	
74.943720	124.000000	
74.963441	126.000000	
74.983162	111.000000	
75.002884	122.000000	
75.022605	123.000000	
75.042326	135.000000	
75.062048	141.000000	
75.081769	121.000000	
75.101491	140.000000	
75.121212	131.000000	
75.140933	124.000000	
75.160655	133.000000	
75.180376	140.000000	
75.200097	117.000000	
75.219819	124.000000	
75.239540	116.000000	
75.259261	106.000000	
75.278983	126.000000	
75.298704	136.000000	
75.318426	110.000000	
75.338147	124.000000	
75.357868	109.000000	
75.377590	113.000000	
75.397311	106.000000	
75.417032	132.000000	
75.436754	130.000000	
75.456475	130.000000	
75.476196	128.000000	
75.495918	130.000000	
75.515639	111.000000	
75.535361	115.000000	
75.555082	113.000000	
75.574803	108.000000	
75.594525	130.000000	
75.614246	119.000000	
75.633967	119.000000	
75.653689	116.000000	
75.673410	113.000000	
75.693131	104.000000	
75.712853	133.000000	
75.732574	119.000000	
75.752296	133.000000	
75.772017	112.000000	
75.791738	129.000000	
75.811460	130.000000	
75.831181	113.000000	
75.850902	98.000000	
75.870624	114.000000	
75.890345	120.000000	
75.910066	110.000000	
75.929788	134.000000	
75.949509	104.000000	
75.969231	144.000000	
75.988952	115.000000	
76.008673	97.000000	
76.028395	119.000000	
76.048116	111.000000	
76.067837	112.000000	
76.087559	121.000000	
76.107280	120.000000	
76.127001	119.000000	
76.146723	125.000000	
76.166444	109.000000	
76.186166	109.000000	
76.205887	121.000000	
76.225608	127.000000	
76.245330	111.000000	
76.265051	109.000000	
76.284772	105.000000	
76.304494	123.000000	
76.324215	132.000000	
76.343936	116.000000	
76.363658	121.000000	
76.383379	114.000000	
76.403101	119.000000	
76.422822	105.000000	
76.442543	113.000000	
76.462265	110.000000	
76.481986	108.000000	
76.501707	96.000000	
76.521429	122.000000	
76.541150	106.000000	
76.560871	87.000000	
76.580593	121.000000	
76.600314	123.000000	
76.620036	119.000000	
76.639757	100.000000	
76.659478	115.000000	
76.679200	109.000000	
76.698921	119.000000	
76.718642	90.000000	
76.738364	112.000000	
76.758085	117.000000	
76.777806	139.000000	
76.797528	120.000000	
76.817249	109.000000	
76.836971	123.000000	
76.856692	118.000000	
76.876413	121.000000	
76.896135	104.000000	
76.915856	126.000000	
76.935577	125.000000	
76.955299	112.000000	
76.975020	110.000000	
76.994741	114.000000	
77.014463	101.000000	
77.034184	118.000000	
77.053906	113.000000	
77.073627	108.000000	
77.093348	122.000000	
77.113070	97.000000	
77.132791	98.000000	
77.152512	118.000000	
77.172234	119.000000	
77.191955	102.000000	
77.211676	109.000000	
77.231398	95.000000	
77.251119	108.000000	
77.270841	111.000000	
77.290562	120.000000	
77.310283	118.000000	
77.330005	105.000000	
77.349726	120.000000	
77.369447	108.000000	
77.389169	119.000000	
77.408890	110.000000	
77.428612	109.000000	
77.448333	91.000000	
77.468054	112.000000	
77.487776	112.000000	
77.507497	138.000000	
77.527218	106.000000	
77.546940	126.000000	
77.566661	120.000000	
77.586382	115.000000	
77.606104	97.000000	
77.625825	116.000000	
77.645547	121.000000	
77.665268	135.000000	
77.684989	133.000000	
77.704711	129.000000	
77.724432	128.000000	
77.744153	127.000000	
77.763875	125.000000	
77.783596	101.000000	
77.803317	116.000000	
77.823039	112.000000	
77.842760	139.000000	
77.862482	113.000000	
77.882203	116.000000	
77.901924	110.000000	
77.921646	98.000000	
77.941367	109.000000	
77.961088	117.000000	
77.980810	112.000000	
78.000531	125.000000	
78.020252	105.000000	
78.039974	135.000000	
78.059695	107.000000	
78.079417	122.000000	
78.099138	109.000000	
78.118859	119.000000	
78.138581	106.000000	
78.158302	116.000000	
78.178023	101.000000	
78.197745	104.000000	
78.217466	110.000000	
78.237187	110.000000	
78.256909	115.000000	
78.276630	115.000000	
78.296352	112.000000	
78.316073	110.000000	
78.335794	122.000000	
78.355516	117.000000	
78.375237	107.000000	
78.394958	114.000000	
78.414680	101.000000	
78.434401	121.000000	
78.454122	109.000000	
78.473844	130.000000	
78.493565	116.000000	
78.513287	112.000000	
78.533008	106.000000	
78.552729	106.000000	
78.572451	100.000000	
78.592172	128.000000	
78.611893	113.000000	
78.631615	96.000000	
78.651336	106.000000	
78.671057	83.000000	
78.690779	93.000000	
78.710500	109.000000	
78.730222	130.000000	
78.749943	112.000000	
78.769664	107.000000	
78.789386	122.000000	
78.809107	130.000000	
78.828828	124.000000	
78.848550	92.000000	
78.868271	121.000000	
78.887992	94.000000	
78.907714	94.000000	
78.927435	134.000000	
78.947157	120.000000	
78.966878	127.000000	
78.986599	128.000000	
79.006321	122.000000	
79.026042	100.000000	
79.045763	124.000000	
79.065485	126.000000	
79.085206	113.000000	
79.104927	135.000000	
79.124649	114.000000	
79.144370	130.000000	
79.164092	117.000000	
79.183813	132.000000	
79.203534	121.000000	
79.223256	118.000000	
79.242977	134.000000	
79.262698	119.000000	
79.282420	134.000000	
79.302141	129.000000	
79.321862	105.000000	
79.341584	116.000000	
79.361305	122.000000	
79.381027	129.000000	
79.400748	115.000000	
79.420469	115.000000	
79.440191	126.000000	
79.459912	107.000000	
79.479633	130.000000	
79.499355	95.000000	
79.519076	129.000000	
79.538797	101.000000	
79.558519	112.000000	
79.578240	128.000000	
79.597962	107.000000	
79.617683	94.000000	
79.637404	103.000000	
79.657126	101.000000	
79.676847	133.000000	
79.696568	119.000000	
79.716290	96.000000	
79.736011	111.000000	
79.755732	123.000000	
79.775454	106.000000	
79.795175	90.000000	
79.814897	112.000000	
79.834618	101.000000	
79.854339	109.000000	
79.874061	118.000000	
79.893782	113.000000	
79.913503	107.000000	
79.933225	114.000000	
79.952946	118.000000	
79.972667	114.000000	
79.992389	100.000000	
80.012110	106.000000	
80.031832	88.000000	
80.051553	100.000000	
80.071274	108.000000	
80.090996	110.000000	
80.110717	106.000000	
80.130438	98.000000	
80.150160	93.000000	
80.169881	114.000000	
80.189602	104.000000	
80.209324	105.000000	
80.229045	121.000000	
80.248767	115.000000	
80.268488	107.000000	
80.288209	99.000000	
80.307931	107.000000	
80.327652	105.000000	
80.347373	94.000000	
80.367095	110.000000	
80.386816	121.000000	
80.406537	106.000000	
80.426259	89.000000	
80.445980	117.000000	
80.465702	123.000000	
80.485423	123.000000	
80.505144	111.000000	
80.524866	112.000000	
80.544587	100.000000	
80.564308	133.000000	
80.584030	134.000000	
80.603751	122.000000	
80.623472	109.000000	
80.643194	115.000000	
80.662915	143.000000	
80.682637	119.000000	
80.702358	140.000000	
80.722079	124.000000	
80.741801	133.000000	
80.761522	139.000000	
80.781243	129.000000	
80.800965	144.000000	
80.820686	113.000000	
80.840407	140.000000	
80.860129	111.000000	
80.879850	126.000000	
80.899572	130.000000	
80.919293	121.000000	
80.939014	128.000000	
80.958736	131.000000	
80.978457	113.000000	
80.998178	123.000000	
81.017900	94.000000	
81.037621	113.000000	
81.057342	94.000000	
81.077064	121.000000	
81.096785	128.000000	
81.116507	127.000000	
81.136228	94.000000	
81.155949	115.000000	
81.175671	97.000000	
81.195392	113.000000	
81.215113	100.000000	
81.234835	85.000000	
81.254556	105.000000	
81.274277	111.000000	
81.293999	109.000000	
81.313720	123.000000	
81.333442	115.000000	
81.353163	107.000000	
81.372884	109.000000	
81.392606	111.000000	
81.412327	119.000000	
81.432048	109.000000	
81.451770	115.000000	
81.471491	88.000000	
81.491212	99.000000	
81.510934	104.000000	
81.530655	130.000000	
81.550377	102.000000	
81.570098	91.000000	
81.589819	127.000000	
81.609541	121.000000	
81.629262	120.000000	
81.648983	113.000000	
81.668705	112.000000	
81.688426	118.000000	
81.708147	118.000000	
81.727869	102.000000	
81.747590	108.000000	
81.767312	127.000000	
81.787033	100.000000	
81.806754	120.000000	
81.826476	105.000000	
81.846197	124.000000	
81.865918	120.000000	
81.885640	116.000000	
81.905361	116.000000	
81.925082	116.000000	
81.944804	103.000000	
81.964525	122.000000	
81.984247	107.000000	
82.003968	85.000000	
82.023689	119.000000	
82.043411	124.000000	
82.063132	107.000000	
82.082853	120.000000	
82.102575	121.000000	
82.122296	126.000000	
82.142017	97.000000	
82.161739	117.000000	
82.181460	119.000000	
82.201182	129.000000	
82.220903	120.000000	
82.240624	122.000000	
82.260346	100.000000	
82.280067	125.000000	
82.299788	122.000000	
82.319510	103.000000	
82.339231	100.000000	
82.358952	117.000000	
82.378674	104.000000	
82.398395	110.000000	
82.418117	113.000000	
82.437838	100.000000	
82.457559	107.000000	
82.477281	120.000000	
82.497002	121.000000	
82.516723	112.000000	
82.536445	108.000000	
82.556166	125.000000	
82.575887	98.000000	
82.595609	108.000000	
82.615330	123.000000	
82.635052	111.000000	
82.654773	129.000000	
82.674494	124.000000	
82.694216	119.000000	
82.713937	156.000000	
82.733658	136.000000	
82.753380	140.000000	
82.773101	162.000000	
82.792822	151.000000	
82.812544	145.000000	
82.832265	153.000000	
82.851987	144.000000	
82.871708	161.000000	
82.891429	160.000000	
82.911151	176.000000	
82.930872	152.000000	
82.950593	157.000000	
82.970315	153.000000	
82.990036	158.000000	
83.009757	138.000000	
83.029479	124.000000	
83.049200	147.000000	
83.068922	148.000000	
83.088643	120.000000	
83.108364	141.000000	
83.128086	131.000000	
83.147807	153.000000	
83.167528	124.000000	
83.187250	117.000000	
83.206971	127.000000	
83.226692	120.000000	
83.246414	117.000000	
83.266135	119.000000	
83.285857	112.000000	
83.305578	113.000000	
83.325299	109.000000	
83.345021	124.000000	
83.364742	121.000000	
83.384463	101.000000	
83.404185	119.000000	
83.423906	107.000000	
83.443627	127.000000	
83.463349	122.000000	
83.483070	124.000000	
83.502792	97.000000	
83.522513	115.000000	
83.542234	92.000000	
83.561956	97.000000	
83.581677	103.000000	
83.601398	106.000000	
83.621120	97.000000	
83.640841	107.000000	
83.660562	106.000000	
83.680284	101.000000	
83.700005	90.000000	
83.719727	110.000000	
83.739448	110.000000	
83.759169	99.000000	
83.778891	91.000000	
83.798612	85.000000	
83.818333	85.000000	
83.838055	100.000000	
83.857776	117.000000	
83.877497	108.000000	
83.897219	109.000000	
83.916940	122.000000	
83.936662	118.000000	
83.956383	115.000000	
83.976104	119.000000	
83.995826	123.000000	
84.015547	100.000000	
84.035268	98.000000	
84.054990	95.000000	
84.074711	104.000000	
84.094432	108.000000	
84.114154	104.000000	
84.133875	107.000000	
84.153597	110.000000	
84.173318	120.000000	
84.193039	111.000000	
84.212761	117.000000	
84.232482	101.000000	
84.252203	117.000000	
84.271925	105.000000	
84.291646	102.000000	
84.311367	107.000000	
84.331089	88.000000	
84.350810	119.000000	
84.370532	109.000000	
84.390253	122.000000	
84.409974	104.000000	
84.429696	118.000000	
84.449417	117.000000	
84.469138	118.000000	
84.488860	103.000000	
84.508581	110.000000	
84.528302	93.000000	
84.548024	105.000000	
84.567745	117.000000	
84.587467	98.000000	
84.607188	112.000000	
84.626909	110.000000	
84.646631	130.000000	
84.666352	95.000000	
84.686073	121.000000	
84.705795	99.000000	
84.725516	110.000000	
84.745237	139.000000	
84.764959	114.000000	
84.784680	122.000000	
84.804402	119.000000	
84.824123	131.000000	
84.843844	142.000000	
84.863566	146.000000	
84.883287	106.000000	
84.903008	123.000000	
84.922730	110.000000	
84.942451	147.000000	
84.962172	125.000000	
84.981894	107.000000	
85.001615	127.000000	
85.021337	121.000000	
85.041058	113.000000	
85.060779	116.000000	
85.080501	109.000000	
85.100222	85.000000	
85.119943	119.000000	
85.139665	124.000000	
85.159386	111.000000	
85.179107	92.000000	
85.198829	104.000000	
85.218550	111.000000	
85.238272	107.000000	
85.257993	99.000000	
85.277714	118.000000	
85.297436	106.000000	
85.317157	100.000000	
85.336878	96.000000	
85.356600	98.000000	
85.376321	120.000000	
85.396042	113.000000	
85.415764	110.000000	
85.435485	113.000000	
85.455207	113.000000	
85.474928	101.000000	
85.494649	104.000000	
85.514371	121.000000	
85.534092	111.000000	
85.553813	114.000000	
85.573535	106.000000	
85.593256	113.000000	
85.612977	101.000000	
85.632699	89.000000	
85.652420	107.000000	
85.672142	98.000000	
85.691863	100.000000	
85.711584	101.000000	
85.731306	82.000000	
85.751027	107.000000	
85.770748	82.000000	
85.790470	103.000000	
85.810191	116.000000	
85.829912	132.000000	
85.849634	113.000000	
85.869355	114.000000	
85.889077	113.000000	
85.908798	101.000000	
85.928519	100.000000	
85.948241	104.000000	
85.967962	95.000000	
85.987683	119.000000	
86.007405	103.000000	
86.027126	93.000000	
86.046848	104.000000	
86.066569	115.000000	
86.086290	114.000000	
86.106012	105.000000	
86.125733	99.000000	
86.145454	97.000000	
86.165176	103.000000	
86.184897	97.000000	
86.204618	118.000000	
86.224340	113.000000	
86.244061	134.000000	
86.263783	104.000000	
86.283504	111.000000	
86.303225	106.000000	
86.322947	101.000000	
86.342668	113.000000	
86.362389	88.000000	
86.382111	109.000000	
86.401832	78.000000	
86.421553	90.000000	
86.441275	105.000000	
86.460996	120.000000	
86.480718	94.000000	
86.500439	111.000000	
86.520160	96.000000	
86.539882	104.000000	
86.559603	111.000000	
86.579324	119.000000	
86.599046	102.000000	
86.618767	107.000000	
86.638488	90.000000	
86.658210	83.000000	
86.677931	101.000000	
86.697653	95.000000	
86.717374	107.000000	
86.737095	105.000000	
86.756817	101.000000	
86.776538	131.000000	
86.796259	132.000000	
86.815981	121.000000	
86.835702	128.000000	
86.855423	115.000000	
86.875145	110.000000	
86.894866	107.000000	
86.914588	112.000000	
86.934309	102.000000	
86.954030	104.000000	
86.973752	105.000000	
86.993473	96.000000	
87.013194	90.000000	
87.032916	110.000000	
87.052637	116.000000	
87.072358	84.000000	
87.092080	97.000000	
87.111801	97.000000	
87.131523	94.000000	
87.151244	116.000000	
87.170965	88.000000	
87.190687	99.000000	
87.210408	89.000000	
87.230129	107.000000	
87.249851	92.000000	
87.269572	97.000000	
87.289293	123.000000	
87.309015	111.000000	
87.328736	107.000000	
87.348458	112.000000	
87.368179	97.000000	
87.387900	110.000000	
87.407622	121.000000	
87.427343	90.000000	
87.447064	112.000000	
87.466786	113.000000	
87.486507	103.000000	
87.506228	101.000000	
87.525950	103.000000	
87.545671	128.000000	
87.565393	115.000000	
87.585114	109.000000	
87.604835	91.000000	
87.624557	118.000000	
87.644278	119.000000	
87.663999	102.000000	
87.683721	98.000000	
87.703442	103.000000	
87.723163	86.000000	
87.742885	115.000000	
87.762606	119.000000	
87.782328	93.000000	
87.802049	98.000000	
87.821770	127.000000	
87.841492	94.000000	
87.861213	101.000000	
87.880934	98.000000	
87.900656	112.000000	
87.920377	125.000000	
87.940098	101.000000	
87.959820	116.000000	
87.979541	90.000000	
87.999263	103.000000	
88.018984	104.000000	
88.038705	89.000000	
88.058427	129.000000	
88.078148	118.000000	
88.097869	113.000000	
88.117591	102.000000	
88.137312	111.000000	
88.157033	118.000000	
88.176755	111.000000	
88.196476	91.000000	
88.216198	95.000000	
88.235919	110.000000	
88.255640	110.000000	
88.275362	114.000000	
88.295083	137.000000	
88.314804	106.000000	
88.334526	114.000000	
88.354247	92.000000	
88.373968	90.000000	
88.393690	90.000000	
88.413411	119.000000	
88.433133	116.000000	
88.452854	109.000000	
88.472575	111.000000	
88.492297	120.000000	
88.512018	98.000000	
88.531739	95.000000	
88.551461	124.000000	
88.571182	114.000000	
88.590903	120.000000	
88.610625	130.000000	
88.630346	108.000000	
88.650068	103.000000	
88.669789	116.000000	
88.689510	132.000000	
88.709232	99.000000	
88.728953	106.000000	
88.748674	114.000000	
88.768396	106.000000	
88.788117	124.000000	
88.807838	117.000000	
88.827560	110.000000	
88.847281	109.000000	
88.867003	113.000000	
88.886724	107.000000	
88.906445	108.000000	
88.926167	94.000000	
88.945888	103.000000	
88.965609	97.000000	
88.985331	101.000000	
89.005052	87.000000	
89.024773	100.000000	
89.044495	97.000000	
89.064216	97.000000	
89.083938	100.000000	
89.103659	97.000000	
89.123380	94.000000	
89.143102	98.000000	
89.162823	95.000000	
89.182544	94.000000	
89.202266	100.000000	
89.221987	103.000000	
89.241708	101.000000	
89.261430	108.000000	
89.281151	103.000000	
89.300873	84.000000	
89.320594	96.000000	
89.340315	97.000000	
89.360037	102.000000	
89.379758	108.000000	
89.399479	82.000000	
89.419201	104.000000	
89.438922	113.000000	
89.458643	120.000000	
89.478365	107.000000	
89.498086	106.000000	
89.517808	130.000000	
89.537529	113.000000	
89.557250	109.000000	
89.576972	137.000000	
89.596693	130.000000	
89.616414	134.000000	
89.636136	133.000000	
89.655857	131.000000	
89.675578	117.000000	
89.695300	140.000000	
89.715021	116.000000	
89.734743	133.000000	
89.754464	137.000000	
89.774185	123.000000	
89.793907	128.000000	
89.813628	120.000000	
89.833349	135.000000	
89.853071	133.000000	
89.872792	116.000000	
89.892513	121.000000	
89.912235	121.000000	
89.931956	126.000000	
89.951678	114.000000	
89.971399	126.000000	
89.991120	113.000000	
