?
20.0     6
20.01972 6
20.03944 6
20.05916 14
20.07888 18
20.09860 21
20.11832 19
20.13805 13
20.15777 6
20.17749 1
20.19721 3
20.21693 5
20.23665 11
20.25637 12
20.27609 11
20.29582 13
20.31554 16
20.33526 15
20.35498 13
20.37470 11
20.39442 11
20.41414 9
20.43387 8
20.45359 14
20.47331 19
20.49303 20
20.51275 17
20.53247 11
20.55219 12
20.57192 10
20.59164 13
20.61136 19
20.63108 22
20.65080 20
20.67052 17
20.69024 11
20.70996 8
20.72969 3
20.74941 6
20.76913 10
20.78885 9
20.80857 12
20.82829 14
20.84801 15
20.86774 14
20.88746 12
20.90718 11
20.92690 8
20.94662 2
20.96634 4
20.98606 3
21.00578 3
21.02551 7
21.04523 12
21.06495 16
21.08467 16
21.10439 15
21.12411 16
21.14383 11
21.16356 6
21.18328 6
21.20300 5
21.22272 1
21.24244 2
21.26216 11
21.28188 15
21.30161 15
21.32133 16
21.34105 15
21.36077 12
21.38049 3
21.40021 5
21.41993 13
21.43965 16
21.45938 13
21.47910 13
21.49882 12
21.51854 12
21.53826 11
21.55798 12
21.57770 14
21.59743 16
21.61715 17
21.63687 14
21.65659 15
21.67631 16
21.69603 14
21.71575 11
21.73547 8
21.75520 13
21.77492 16
21.79464 13
21.81436 13
21.83408 11
21.85380 4
21.87352 2
21.89325 4
21.91297 12
21.93269 16
21.95241 19
21.97213 16
21.99185 14
22.01158 8
22.03130 6
22.05102 3
22.07074 10
22.09046 10
22.11018 15
22.12990 13
22.14963 15
22.16935 14
22.18907 14
22.20879 11
22.22851 15
22.24823 11
22.26795 12
22.28767 7
22.3074  10
22.32712 8
22.34684 11
22.36656 10
22.38628 13
22.40600 11
22.42572 13
22.44545 10
22.46517 11
22.48489 9
22.50461 12
22.52433 11
22.54405 15
22.56377 18
22.58349 23
22.60322 21
22.62294 17
22.64266 15
22.66238 12
22.68210 8
22.70182 7
22.72154 7
22.74127 6
22.76099 4
22.78071 4
22.80043 7
22.82015 9
22.83987 10
22.85959 11
22.87932 8
22.89904 8
22.91876 10
22.93848 12
22.95820 14
22.97792 12
22.99764 10
23.01736 11
23.03709 7
23.05681 7
23.07653 10
23.09625 9
23.11597 11
23.13569 14
23.15541 20
23.17514 27
23.19486 26
23.21458 21
23.23430 14
23.25402 8
23.27374 3
23.29346 6
23.31318 8
23.33291 9
23.35263 9
23.37235 6
23.39207 5
23.41179 4
23.43151 1
23.45123 10
23.47096 16
23.49068 18
23.51040 17
23.53012 15
23.54984 10
23.56956 7
23.58928 3
23.60900 10
23.62873 17
23.64845 25
23.66817 26
23.68789 26
23.70761 16
23.72733 13
23.74705 6
23.76678 9
23.78650 12
23.80622 15
23.82594 15
23.84566 15
23.86538 10
23.88510 9
23.90483 10
23.92455 12
23.94427 10
23.96399 9
23.98371 10
24.00343 15
24.02315 16
24.04287 17
24.06260 20
24.08232 18
24.10204 21
24.12176 19
24.14148 20
24.16120 26
24.18092 33
24.20065 37
24.22037 49
24.24009 56
24.25981 67
24.27953 69
24.29925 75
24.31897 95
24.33869 122
24.35842 146
24.37814 161
24.39786 163
24.41758 147
24.43730 131
24.45702 118
24.47674 108
24.49647 97
24.51619 86
24.53591 67
24.55563 51
24.57535 34
24.59507 33
24.61479 36
24.63452 33
24.65424 26
24.67396 22
24.69368 17
24.71340 13
24.73312 16
24.75285 19
24.77257 20
24.79229 17
24.81201 13
24.83173 9
24.85145 6
24.87117 1
24.89089 14
24.91062 21
24.93034 22
24.95006 18
24.96978 16
24.98950 14
25.00922 11
25.02894 7
25.04867 13
25.06839 9
25.08811 8
25.10783 4
25.12755 8
25.14727 16
25.16699 18
25.18671 17
25.20644 12
25.22616 6
25.24588 4
25.26560 5
25.28532 10
25.30504 13
25.32476 10
25.34449 9
25.36421 5
25.38393 7
25.40365 11
25.42337 16
25.44309 16
25.46281 15
25.48254 11
25.50226 5
25.52198 4
25.54170 8
25.56142 12
25.58114 17
25.60086 17
25.62058 17
25.64031 16
25.66003 10
25.67975 8
25.69947 11
25.71919 14
25.73891 18
25.75863 17
25.77836 18
25.79808 19
25.81780 13
25.83752 8
25.85724 13
25.87696 15
25.89668 16
25.91640 20
25.93613 24
25.95585 26
25.97557 23
25.99529 20
26.01501 22
26.03473 18
26.05445 13
26.07418 8
26.09390 5
26.11362 5
26.13334 10
26.15306 15
26.17278 23
26.19250 23
26.21223 20
26.23195 12
26.25167 14
26.27139 10
26.29111 15
26.31083 13
26.33055 14
26.35027 17
26.37000 19
26.38972 20
26.40944 25
26.42916 22
26.44888 17
26.46860 10
26.48832 7
26.50805 10
26.52777 11
26.54749 18
26.56721 21
26.58693 20
26.60665 13
26.62637 13
26.64609 9
26.66582 6
26.68554 6
26.70526 12
26.72498 16
26.74470 16
26.76442 16
26.78414 15
26.80387 13
26.82359 14
26.84331 16
26.86303 15
26.88275 17
26.90247 13
26.92219 13
26.94192 11
26.96164 8
26.98136 11
27.00108 13
27.02080 15
27.04052 20
27.06024 21
27.07996 19
27.09969 16
27.11941 6
27.13913 9
27.15885 6
27.17857 18
27.19829 21
27.21801 25
27.23774 24
27.25746 22
27.27718 19
27.29690 19
27.31662 14
27.33634 20
27.35607 12
27.37579 14
27.39551 18
27.41523 18
27.43495 25
27.45467 25
27.47439 24
27.49411 22
27.51384 11
27.53356 12
27.55328 11
27.57300 11
27.59272 21
27.61244 22
27.63216 25
27.65189 22
27.67161 16
27.69133 13
27.71105 9
27.73077 11
27.75049 16
27.77021 19
27.78994 22
27.80966 20
27.82938 19
27.84910 14
27.86882 10
27.88854 8
27.90826 13
27.92798 20
27.94771 23
27.96743 22
27.98715 24
28.00687 21
28.02659 19
28.04631 14
28.06603 18
28.08576 16
28.10548 14
28.12520 17
28.14492 23
28.16464 25
28.18436 28
28.20408 23
28.22380 18
28.24353 17
28.26325 17
28.28297 21
28.30269 21
28.32241 14
28.34213 13
28.36185 10
28.38158 7
28.4013  13
28.42102 13
28.44074 10
28.46046 10
28.48018 7
28.49990 15
28.51963 24
28.53935 28
28.55907 30
28.57879 28
28.59851 22
28.61823 25
28.63795 22
28.65767 21
28.67740 19
28.69712 9
28.71684 5
28.73656 6
28.75628 11
28.77600 22
28.79572 27
28.81545 28
28.83517 25
28.85489 16
28.87461 14
28.89433 13
28.91405 15
28.93377 20
28.95349 21
28.97322 24
28.99294 25
29.01266 25
29.03238 24
29.05210 18
29.07182 16
29.09154 17
29.11127 14
29.13099 17
29.15071 19
29.17043 25
29.19015 21
29.20987 15
29.22959 14
29.24931 16
29.26904 20
29.28876 23
29.30848 25
29.32820 22
29.34792 17
29.36764 11
29.38736 11
29.40709 14
29.42681 15
29.44653 20
29.46625 26
29.48597 27
29.50569 28
29.52541 25
29.54514 17
29.56486 13
29.58458 8
29.60430 13
29.62402 16
29.64374 17
29.66346 17
29.68318 21
29.70291 23
29.72263 33
29.74235 41
29.76207 40
29.78179 40
29.80151 41
29.82123 43
29.84096 49
29.86068 52
29.88040 61
29.90012 65
29.91984 61
29.93956 60
29.95929 50
29.97901 50
29.99873 42
30.01845 30
30.03817 39
30.05789 38
30.07761 41
30.09734 41
30.11706 28
30.13678 33
30.15650 32
30.17622 24
30.19594 37
30.21566 35
30.23538 38
30.25511 37
30.27483 29
30.29455 27
30.31427 26
30.33399 17
30.35371 20
30.37343 19
30.39316 14
30.41288 18
30.43260 16
30.45232 15
30.47204 22
30.49176 22
30.51148 22
30.53120 22
30.55093 14
30.57065 14
30.59037 10
30.61009 10
30.62981 14
30.64953 13
30.66925 14
30.68898 17
30.7087  16
30.72842 17
30.74814 22
30.76786 22
30.78758 21
30.80730 22
30.82702 21
30.84675 24
30.86647 23
30.88619 21
30.90591 19
30.92563 18
30.94535 13
30.96507 20
30.9848  26
31.00452 27
31.02424 28
31.04396 23
31.06368 14
31.08340 13
31.10312 8
31.12285 12
31.14257 15
31.16229 17
31.18201 18
31.20173 15
31.22145 9
31.24117 8
31.26089 8
31.28062 6
31.30034 13
31.32006 16
31.33978 15
31.35950 16
31.37922 16
31.39894 17
31.41867 20
31.43839 18
31.45811 17
31.47783 16
31.49755 16
31.51727 18
31.53699 19
31.55671 20
31.57644 22
31.59616 19
31.61588 12
31.63560 9
31.65532 10
31.67504 10
31.69476 14
31.71449 21
31.73421 26
31.75393 30
31.77365 28
31.79337 22
31.81309 17
31.83281 10
31.85254 4
31.87226 2
31.89198 2
31.91170 9
31.93142 15
31.95114 18
31.97086 19
31.99058 14
32.01031 9
32.03003 9
32.04975 10
32.06947 13
32.08919 20
32.10891 21
32.12863 23
32.14836 17
32.16808 21
32.18780 24
32.20752 18
32.22724 20
32.24696 21
32.26668 15
32.28641 16
32.30613 13
32.32585 18
32.34557 14
32.36529 13
32.38501 14
32.40473 11
32.42446 9
32.44418 13
32.46390 17
32.48362 16
32.50334 13
32.52306 17
32.54278 13
32.56250 19
32.58223 26
32.60195 28
32.62167 28
32.64139 24
32.66111 17
32.68083 11
32.70055 7
32.72028 10
32.74000 15
32.75972 16
32.77944 15
32.79916 18
32.81888 18
32.83860 16
32.85833 18
32.87805 18
32.89777 19
32.91749 19
32.93721 15
32.95693 14
32.97665 15
32.99638 14
33.01610 20
33.03582 22
33.05554 18
33.07526 24
33.09498 29
33.11470 36
33.13443 44
33.15415 50
33.17387 54
33.19359 55
33.21331 53
33.23303 61
33.25275 72
33.27248 82
33.29219 103
33.31192 119
33.33164 129
33.35136 148
33.37108 156
33.39080 162
33.41052 166
33.43024 171
33.44997 180
33.46969 172
33.48941 157
33.50913 149
33.52885 123
33.54857 99
33.56829 85
33.58802 75
33.60774 63
33.62746 51
33.64718 48
33.66690 41
33.68662 40
33.70634 46
33.72607 51
33.74579 53
33.76551 50
33.78523 44
33.80495 36
33.82467 23
33.84439 21
33.86412 19
33.88384 19
33.90356 24
33.92328 20
33.94300 21
33.96272 22
33.98244 23
34.00217 28
34.02188 30
34.04161 30
34.06133 25
34.08105 17
34.10077 13
34.12049 13
34.14021 8
34.15993 15
34.17966 20
34.19938 19
34.21910 17
34.23882 18
34.25854 18
34.27826 17
34.29798 14
34.31771 15
34.33743 18
34.35715 14
34.37687 19
34.39659 22
34.41631 22
34.43603 17
34.45576 12
34.47548 7
34.49520 9
34.51492 14
34.53464 23
34.55436 29
34.57408 27
34.59381 22
34.61353 14
34.63325 6
34.65297 8
34.67269 14
34.69241 16
34.71213 19
34.73186 23
34.75157 19
34.77130 21
34.79102 24
34.81074 27
34.83046 32
34.85018 33
34.86990 28
34.88962 29
34.90935 26
34.92907 32
34.94879 35
34.96851 46
34.98823 62
35.00795 73
35.02767 81
35.04740 88
35.06712 95
35.08684 99
35.10656 105
35.12628 118
35.14600 122
35.16573 124
35.18545 127
35.20517 118
35.22489 112
35.24461 107
35.26433 96
35.28405 88
35.30378 74
35.32350 65
35.34322 63
35.36294 61
35.38266 69
35.40238 73
35.42210 67
35.44183 59
35.46155 45
35.48127 33
35.50099 23
35.52071 21
35.54043 21
35.56015 26
35.57988 33
35.59959 33
35.61932 35
35.63904 37
35.65876 35
35.67848 39
35.69820 40
35.71792 47
35.73764 58
35.75737 59
35.77709 69
35.79681 71
35.81653 69
35.83625 65
35.85597 64
35.87569 66
35.89542 78
35.91514 87
35.93486 102
35.95458 108
35.97430 105
35.99402 96
36.01374 87
36.03347 79
36.05319 79
36.07291 77
36.09263 76
36.11235 73
36.13207 63
36.15179 48
36.17152 37
36.19124 25
36.21096 21
36.23068 22
36.25040 28
36.27012 36
36.28984 39
36.30957 36
36.32928 34
36.34901 23
36.36873 14
36.38845 11
36.40817 10
36.42789 16
36.44761 19
36.46733 22
36.48706 21
36.50678 15
36.52650 11
36.54622 13
36.56594 13
36.58566 18
36.60538 28
36.62511 35
36.64483 33
36.66455 28
36.68427 23
36.70399 16
36.72371 8
36.74343 5
36.76316 12
36.78288 18
36.80260 23
36.82232 24
36.84204 19
36.86176 21
36.88148 22
36.90121 26
36.92092 30
36.94065 33
36.96037 33
36.98009 25
36.99981 12
37.01953 12
37.03926 9
37.05897 8
37.07870 6
37.09842 9
37.11814 12
37.13786 15
37.15758 17
37.17730 23
37.19702 21
37.21675 14
37.23647 10
37.25619 10
37.27591 5
37.29563 8
37.31535 12
37.33507 16
37.35480 14
37.37452 16
37.39424 16
37.41396 14
37.43368 8
37.45340 12
37.47312 13
37.49285 17
37.51257 17
37.53229 17
37.55201 15
37.57173 15
37.59145 13
37.61117 11
37.63090 10
37.65062 12
37.67034 13
37.69006 11
37.70978 15
37.72950 22
37.74922 22
37.76894 21
37.78867 18
37.80839 13
37.82811 12
37.84783 9
37.86755 6
37.88728 8
37.90699 9
37.92672 12
37.94644 14
37.96616 13
37.98588 12
38.00560 10
38.02532 8
38.04504 9
38.06477 17
38.08449 19
38.10421 27
38.12393 27
38.14365 23
38.16337 18
38.18309 9
38.20282 7
38.22254 6
38.24226 8
38.26198 10
38.28170 14
38.30142 13
38.32114 13
38.34087 9
38.36059 11
38.38031 12
38.40003 17
38.41975 15
38.43947 24
38.45919 24
38.47892 26
38.49863 23
38.51836 21
38.53808 17
38.55780 13
38.57752 11
38.59724 17
38.61697 18
38.63668 21
38.65641 20
38.67613 16
38.69585 12
38.71557 10
38.73529 8
38.75501 9
38.77473 11
38.79446 12
38.81418 15
38.83390 14
38.85362 12
38.87334 13
38.89306 9
38.91278 8
38.93251 9
38.95223 13
38.97195 20
38.99167 24
39.01139 22
39.03111 19
39.05083 18
39.07056 13
39.09028 16
39.11000 19
39.12972 18
39.14944 23
39.16916 23
39.18888 20
39.20861 20
39.22832 17
39.24805 15
39.26777 16
39.28749 14
39.30721 17
39.32693 17
39.34665 18
39.36637 16
39.38610 13
39.40582 8
39.42554 5
39.44526 6
39.46498 7
39.48470 7
39.50442 12
39.52415 17
39.54387 20
39.56359 19
39.58331 17
39.60303 21
39.62275 20
39.64247 16
39.66220 16
39.68192 16
39.70164 15
39.72136 15
39.74108 14
39.76080 19
39.78052 20
39.80025 20
39.81997 17
39.83969 19
39.85941 21
39.87913 18
39.89885 14
39.91857 11
39.93830 10
39.95801 11
39.97774 12
39.99746 19
40.01718 20
40.03690 17
40.05662 14
40.07634 8
40.09606 5
40.11579 6
40.13551 4
40.15523 4
40.17495 7
40.19467 15
40.21439 19
40.23411 22
40.25384 23
40.27356 19
40.29328 13
40.31300 7
40.33272 5
40.35244 8
40.37216 11
40.39189 15
40.41161 16
40.43133 19
40.45105 24
40.47077 21
40.49049 16
40.51022 11
40.52994 10
40.54966 6
40.56938 1
40.58910 5
40.60882 14
40.62854 20
40.64827 28
40.66799 30
40.68771 32
40.70743 25
40.72715 16
40.74687 7
40.76659 5
40.78632 0
40.80603 1
40.82576 4
40.84548 10
40.86520 15
40.88492 18
40.90464 22
40.92436 23
40.94408 27
40.96381 31
40.98353 35
41.00325 36
41.02297 36
41.04269 28
41.06241 23
41.08213 19
41.10186 31
41.12158 36
41.14130 51
41.16102 58
41.18074 64
41.20046 57
41.22018 50
41.23991 40
41.25963 31
41.27935 26
41.29907 36
41.31879 41
41.33851 52
41.35823 61
41.37796 61
41.39768 50
41.4174  38
41.43712 30
41.45684 15
41.47656 9
41.49628 13
41.51601 17
41.53572 17
41.55545 20
41.57517 23
41.59489 20
41.61461 12
41.63433 16
41.65405 23
41.67377 23
41.69350 24
41.71322 30
41.73294 31
41.75266 23
41.77238 20
41.79210 19
41.81182 18
41.83155 17
41.85127 16
41.87099 20
41.89071 20
41.91043 16
41.93015 16
41.94987 11
41.96960 13
41.98932 13
42.00904 12
42.02876 19
42.04848 20
42.06820 21
42.08792 17
42.10765 13
42.12737 14
42.14709 13
42.16681 10
42.18653 11
42.20625 12
42.22597 15
42.24570 12
42.26541 17
42.28514 20
42.30486 24
42.32458 26
42.34430 30
42.36402 32
42.38374 32
42.40346 24
42.42319 25
42.44291 23
42.46263 24
42.48235 31
42.50207 31
42.52179 34
42.54151 36
42.56124 31
42.58096 31
42.60068 30
42.62040 28
42.64012 35
42.65984 33
42.67956 34
42.69929 37
42.71901 41
42.73873 40
42.75845 39
42.77817 41
42.79789 46
42.81761 43
42.83734 38
42.85706 40
42.87678 35
42.89650 27
42.91622 24
42.93594 24
42.95566 25
42.97539 27
42.99511 29
43.01483 31
43.03455 27
43.05427 31
43.07399 38
43.09371 40
43.11343 44
43.13316 47
43.15288 42
43.17260 36
43.19232 25
43.21204 29
43.23176 27
43.25148 32
43.27121 43
43.29093 48
43.31065 50
43.33037 53
43.35009 54
43.36981 54
43.38953 55
43.40926 64
43.42898 79
43.44870 89
43.46842 114
43.48814 141
43.50786 170
43.52758 214
43.54731 261
43.56703 316
43.58675 405
43.60647 537
43.62619 757
43.64591 1085
43.66563 1560
43.68536 2198
43.70508 2999
43.7248  3829
43.74452 4422
43.76424 4514
43.78396 4096
43.80368 3276
43.82341 2286
43.84312 1372
43.86285 777
43.88257 508
43.90229 401
43.92201 328
43.94173 270
43.96145 211
43.98117 156
44.0009  106
44.02062 81
44.04034 70
44.06006 56
44.07978 59
44.09950 62
44.11922 72
44.13895 65
44.15867 60
44.17839 66
44.19811 57
44.21783 56
44.23755 48
44.25727 49
44.277   58
44.29672 59
44.31644 70
44.33616 69
44.35588 70
44.37560 65
44.39532 55
44.41505 49
44.43477 45
44.45449 34
44.47421 26
44.49393 20
44.51365 20
44.53337 16
44.55310 18
44.57281 20
44.59254 25
44.61226 26
44.63198 23
44.65170 23
44.67142 20
44.69114 18
44.71086 16
44.73059 15
44.75031 17
44.77003 19
44.78975 15
44.80947 14
44.82919 16
44.84891 17
44.86864 16
44.88836 13
44.90808 8
44.92780 1
44.94752 3
44.96724 9
44.98696 16
45.00669 23
45.02641 28
45.04613 29
45.06585 22
45.08557 17
45.10529 19
45.12501 19
45.14474 17
45.16446 13
45.18418 16
45.20390 13
45.22362 8
45.24334 8
45.26306 11
45.28279 15
45.30250 16
45.32223 13
45.34195 18
45.36167 18
45.38139 12
45.40111 12
45.42083 19
45.44055 22
45.46028 18
45.48000 15
45.49972 17
45.51944 15
45.53916 8
45.55888 10
45.57860 15
45.59833 13
45.61805 8
45.63777 9
45.65749 12
45.67721 13
45.69693 9
45.71666 12
45.73638 16
45.75610 14
45.77582 13
45.79554 8
45.81526 11
45.83498 10
45.85471 8
45.87443 12
45.89415 15
45.91387 16
45.93359 16
45.95331 11
45.97303 9
45.99276 5
46.01248 2
46.0322  0
46.05192 2
46.07164 3
46.09136 7
46.11108 14
46.13081 17
46.15052 17
46.17025 15
46.18997 13
46.20969 9
46.22941 4
46.24913 4
46.26885 4
46.28857 5
46.3083  6
46.32802 5
46.34774 5
46.36746 1
46.38718 5
46.40690 5
46.42662 7
46.44635 10
46.46607 10
46.48579 13
46.50551 14
46.52523 13
46.54495 16
46.56467 12
46.5844  11
46.60412 4
46.62384 0
46.64356 1
46.66328 0
46.68300 4
46.70272 7
46.72245 7
46.74217 7
46.76189 8
46.78161 9
46.80133 12
46.82105 15
46.84077 18
46.8605  19
46.88021 17
46.89994 12
46.91966 12
46.93938 10
46.95910 9
46.97882 9
46.99854 5
47.01826 3
47.03799 1
47.05771 0
47.07743 2
47.09715 0
47.11687 1
47.13659 3
47.15631 6
47.17604 8
47.19576 11
47.21548 12
47.23520 9
47.25492 7
47.27464 6
47.29436 5
47.31409 3
47.33381 4
47.35353 4
47.37325 6
47.39297 6
47.41269 8
47.43241 10
47.45214 8
47.47186 10
47.49158 12
47.51130 10
47.53102 11
47.55074 8
47.57046 3
47.59019 4
47.60990 1
47.62963 7
47.64935 11
47.66907 11
47.68879 14
47.70851 12
47.72823 11
47.74795 9
47.76768 5
47.78740 10
47.80712 13
47.82684 11
47.84656 10
47.86628 7
47.88600 8
47.90573 7
47.92545 8
47.94517 10
47.96489 9
47.98461 6
48.00433 0
48.02405 0
48.04378 2
48.06350 4
48.08322 8
48.10294 9
48.12266 9
48.14238 11
48.16210 13
48.18183 14
48.20155 17
48.22127 13
48.24099 13
48.26071 10
48.28043 7
48.30015 5
48.31988 5
48.3396  5
48.35932 1
48.37904 0
48.39876 5
48.41848 13
48.43821 18
48.45792 21
48.47765 18
48.49737 17
48.51709 9
48.53681 10
48.55653 11
48.57625 14
48.59597 13
48.6157  11
48.63542 6
48.65514 4
48.67486 0
48.69458 1
48.71430 2
48.73402 1
48.75375 4
48.77347 6
48.79319 9
48.81291 10
48.83263 7
48.85235 7
48.87207 6
48.8918  8
48.91152 12
48.93124 15
48.95096 19
48.97068 21
48.99040 18
49.01012 14
49.02985 8
49.04956 6
49.06929 1
49.08901 0
49.10873 1
49.12845 5
49.14817 8
49.1679  7
49.18761 13
49.20734 14
49.22706 13
49.24678 13
49.26650 18
49.28622 22
49.30594 19
49.32566 14
49.34539 20
49.36511 19
49.38483 16
49.40455 10
49.42427 13
49.44399 12
49.46371 7
49.48344 4
49.50316 6
49.52288 10
49.54260 16
49.56232 16
49.58204 19
49.60176 20
49.62149 17
49.64121 15
49.66093 18
49.68065 23
49.70037 22
49.72009 28
49.73981 32
49.75954 28
49.77925 21
49.79898 17
49.81870 23
49.83842 28
49.85814 22
49.87786 34
49.89759 40
49.91730 49
49.93703 46
49.95675 43
49.97647 44
49.99619 43
50.01591 31
50.03563 22
50.05535 14
50.07508 16
50.09480 19
50.11452 24
50.13424 35
50.15396 39
50.17368 43
50.19340 42
50.21313 40
50.23285 41
50.25257 44
50.27229 42
50.29201 33
50.31173 24
50.33145 17
50.35118 12
50.37090 10
50.39062 10
50.41034 14
50.43006 21
50.44978 30
50.46950 44
50.48923 56
50.50894 64
50.52867 63
50.54839 63
50.56811 62
50.58783 66
50.60755 74
50.62727 77
50.64699 93
50.66672 112
50.68644 134
50.70616 166
50.72588 211
50.74560 259
50.76532 315
50.78504 391
50.80477 487
50.82449 612
50.84421 761
50.86393 897
50.88365 1070
50.90337 1245
50.9231  1396
50.94282 1509
50.96254 1518
50.98226 1425
51.00198 1266
51.02170 1015
51.04142 771
51.06115 568
51.08087 401
51.10059 305
51.12031 229
51.14003 169
51.15975 156
51.17947 142
51.1992  126
51.21892 125
51.23864 108
51.25836 98
51.27808 86
51.29780 57
51.31752 44
51.33725 35
51.35696 28
51.37669 28
51.39641 23
51.41613 19
51.43585 25
51.45557 17
51.47529 21
51.49501 23
51.51474 25
51.53446 31
51.55418 34
51.57390 31
51.59362 34
51.61334 31
51.63306 32
51.65279 31
51.67251 29
51.69223 24
51.71195 24
51.73167 15
51.75139 18
51.77111 21
51.79084 20
51.81056 19
51.83028 17
51.85000 11
51.86972 11
51.88944 8
51.90916 12
51.92889 15
51.94861 14
51.96833 12
51.98805 11
52.00777 15
52.02749 17
52.04721 17
52.06694 16
52.08665 14
52.10638 14
52.12610 12
52.14582 16
52.16554 18
52.18526 17
52.20498 16
52.22470 12
52.24443 7
52.26415 7
52.28387 9
52.30359 11
52.32331 10
52.34303 12
52.36275 20
52.38248 21
52.40220 18
52.42192 17
52.44164 19
52.46136 16
52.48108 15
52.50080 14
52.52053 18
52.54025 19
52.55997 19
52.57969 13
52.59941 15
52.61913 14
52.63885 13
52.65858 10
52.67830 9
52.69802 10
52.71774 11
52.73746 8
52.75718 10
52.77690 7
52.79663 11
52.81634 14
52.83607 12
52.85579 17
52.87551 23
52.89523 22
52.91495 24
52.93467 20
52.95439 23
52.97412 26
52.99384 23
53.01356 21
53.03328 17
53.05300 12
53.07272 13
53.09244 12
53.11217 13
53.13189 19
53.15161 16
53.17133 14
53.19105 18
53.21077 19
53.23049 18
53.25022 17
53.26994 14
53.28966 15
53.30938 13
53.32910 10
53.34882 19
53.36854 23
53.38827 26
53.40799 25
53.42771 20
53.44743 17
53.46715 8
53.48687 2
53.50659 6
53.52632 8
53.54604 11
53.56576 15
53.58548 16
53.60520 17
53.62492 13
53.64465 15
53.66436 15
53.68409 14
53.70381 10
53.72353 10
53.74325 12
53.76297 16
53.78269 16
53.80241 16
53.82214 15
53.84186 15
53.86158 13
53.88130 13
53.90102 14
53.92074 15
53.94046 16
53.96019 13
53.97991 12
53.99963 15
54.01935 16
54.03907 20
54.05879 21
54.07851 24
54.09824 24
54.11796 22
54.13768 20
54.15740 18
54.17712 16
54.19684 16
54.21656 12
54.23629 15
54.25601 15
54.27573 24
54.29545 28
54.31517 32
54.33489 35
54.35461 34
54.37434 35
54.39405 39
54.41378 45
54.43350 58
54.45322 65
54.47294 63
54.49266 63
54.51238 64
54.53210 59
54.55183 57
54.57155 59
54.59127 58
54.61099 64
54.63071 62
54.65043 58
54.67015 56
54.68988 51
54.70960 48
54.72932 43
54.74904 31
54.76876 31
54.78848 31
54.80820 27
54.82793 28
54.84765 35
54.86737 33
54.88709 30
54.90681 31
54.92653 31
54.94625 29
54.96598 29
54.98570 25
55.00542 21
55.02514 11
55.04486 7
55.06458 12
55.08430 15
55.10403 14
55.12374 19
55.14347 22
55.16319 19
55.18291 18
55.20263 24
55.22235 25
55.24207 24
55.26179 19
55.28152 14
55.30124 14
55.32096 13
55.34068 14
55.36040 17
55.38012 17
55.39984 18
55.41957 17
55.43929 14
55.45901 12
55.47873 10
55.49845 9
55.51817 9
55.53789 9
55.55762 11
55.57734 14
55.59706 13
55.61678 11
55.63650 9
55.65622 9
55.67594 11
55.69567 8
55.71539 7
55.73511 8
55.75483 7
55.77455 7
55.79427 4
55.81399 2
55.83372 4
55.85343 6
55.87316 6
55.89288 10
55.91260 14
55.93232 17
55.95204 14
55.97176 12
55.99148 12
56.01121 15
56.03093 15
56.05065 15
56.07037 21
56.09009 22
56.10981 22
56.12953 17
56.14926 12
56.16898 12
56.18870 16
56.20842 19
56.22814 24
56.24786 26
56.26759 30
56.28731 32
56.30703 32
56.32675 29
56.34647 28
56.36619 25
56.38591 21
56.40564 19
56.42536 20
56.44508 22
56.46480 22
56.48452 22
56.50424 20
56.52396 24
56.54369 27
56.56341 33
56.58313 37
56.60285 38
56.62257 38
56.64229 37
56.66201 30
56.68174 22
56.70145 17
56.72118 17
56.74090 12
56.76062 13
56.78034 14
56.80006 18
56.81978 17
56.83950 20
56.85923 24
56.87895 25
56.89867 24
56.91839 20
56.93811 22
56.95783 19
56.97755 17
56.99728 17
57.01700 17
57.03672 15
57.05644 15
57.07616 12
57.09588 12
57.11560 8
57.13533 8
57.15505 8
57.17477 10
57.19449 14
57.21421 17
57.23393 15
57.25365 12
57.27338 11
57.29310 12
57.31282 11
57.33254 8
57.35226 10
57.37198 13
57.39170 15
57.41143 19
57.43114 22
57.45087 23
57.47059 22
57.49031 20
57.51003 22
57.52975 24
57.54947 25
57.56919 22
57.58892 19
57.60864 14
57.62836 10
57.64808 8
57.66780 10
57.68752 11
57.70724 14
57.72697 15
57.74669 18
57.76641 17
57.78613 16
57.80585 19
57.82557 17
57.84529 20
57.86502 21
57.88474 19
57.90446 18
57.92418 16
57.94390 10
57.96362 13
57.98334 12
58.00307 12
58.02279 12
58.04251 11
58.06223 11
58.08195 8
58.10167 3
58.12139 3
58.14112 8
58.16083 6
58.18056 9
58.20028 15
58.22000 17
58.23972 16
58.25944 17
58.27916 16
58.29888 16
58.31861 12
58.33833 10
58.35805 10
58.37777 10
58.39749 10
58.41721 11
58.43693 9
58.45666 5
58.47638 6
58.49610 9
58.51582 9
58.53554 12
58.55526 18
58.57498 23
58.59471 22
58.61443 17
58.63415 13
58.65387 13
58.67359 9
58.69331 6
58.71303 7
58.73276 10
58.75248 11
58.77220 9
58.79192 6
58.81164 7
58.83136 8
58.85108 4
58.87081 6
58.89053 10
58.91025 11
58.92997 7
58.94969 10
58.96941 9
58.98914 12
59.00885 11
59.02858 19
59.04830 21
59.06802 19
59.08774 13
59.10746 13
59.12718 6
59.14690 5
59.16663 0
59.18635 2
59.20607 3
59.22579 5
59.24551 10
59.26523 14
59.28495 18
59.30468 16
59.32440 12
59.34412 13
59.36384 10
59.38356 12
59.40328 15
59.42300 14
59.44273 15
59.46245 11
59.48217 10
59.50189 10
59.52161 12
59.54133 14
59.56105 12
59.58078 10
59.60050 9
59.62022 7
59.63994 10
59.65966 12
59.67938 14
59.69910 14
59.71883 9
59.73854 11
59.75827 9
59.77799 9
59.79771 10
59.81743 11
59.83715 9
59.85687 6
59.87659 8
59.89632 13
59.91604 12
59.93576 21
59.95548 23
59.97520 24
59.99492 19
60.01464 15
60.03437 16
60.05409 11
60.07381 7
60.09353 16
60.11325 18
60.13297 16
60.15269 11
60.17242 10
60.19214 11
60.21186 8
60.23158 9
60.25130 15
60.27102 16
60.29074 12
60.31047 9
60.33018 10
60.34991 10
60.36963 8
60.38935 11
60.40907 10
60.42879 10
60.44852 5
60.46823 8
60.48796 11
60.50768 11
60.52740 11
60.54712 12
60.56684 13
60.58656 15
60.60628 10
60.62601 11
60.64573 13
60.66545 8
60.68517 7
60.70489 6
60.72461 7
60.74433 6
60.76406 8
60.78378 10
60.80350 13
60.82322 13
60.84294 13
60.86266 13
60.88238 16
60.90211 16
60.92183 21
60.94155 18
60.96127 15
60.98099 10
61.00071 6
61.02043 3
61.04016 4
61.05987 4
61.07960 7
61.09932 8
61.11904 7
61.13876 8
61.15848 7
61.17820 7
61.19792 7
61.21765 5
61.23737 8
61.25709 9
61.27681 7
61.29653 6
61.31625 7
61.33597 15
61.35570 15
61.37542 19
61.39514 27
61.41486 26
61.43458 22
61.45430 20
61.47403 19
61.49375 19
61.51347 12
61.53319 10
61.55291 5
61.57263 2
61.59235 7
61.61208 11
61.63180 16
61.65152 18
61.67124 16
61.69096 11
61.71068 5
61.73040 8
61.75013 16
61.76985 21
61.78957 23
61.80929 25
61.82901 26
61.84873 22
61.86845 26
61.88818 28
61.90789 29
61.92762 26
61.94734 17
61.96706 13
61.98678 12
62.00650 7
62.02623 12
62.04594 17
62.06567 24
62.08539 29
62.10511 28
62.12483 28
62.14455 29
62.16427 24
62.18399 24
62.20372 24
62.22344 28
62.24316 25
62.26288 20
62.28260 22
62.30232 20
62.32204 16
62.34177 19
62.36149 17
62.38121 19
62.40093 17
62.42065 16
62.44037 19
62.46009 13
62.47982 13
62.49954 16
62.51926 16
62.53898 18
62.55870 23
62.57842 23
62.59814 22
62.61787 22
62.63758 23
62.65731 23
62.67703 23
62.69675 20
62.71647 23
62.73619 25
62.75591 27
62.77563 30
62.79536 29
62.81508 34
62.83480 31
62.85452 29
62.87424 29
62.89396 30
62.91368 25
62.93341 27
62.95313 28
62.97285 31
62.99257 27
63.01229 23
63.03201 17
63.05173 12
63.07146 6
63.09118 19
63.11090 22
63.13062 26
63.15034 28
63.17006 25
63.18978 25
63.20951 31
63.22923 31
63.24895 39
63.26867 30
63.28839 31
63.30811 25
63.32783 19
63.34756 21
63.36727 28
63.38700 22
63.40672 22
63.42644 18
63.44616 21
63.46588 14
63.48560 13
63.50532 14
63.52505 14
63.54477 12
63.56449 11
63.58421 13
63.60393 10
63.62365 6
63.64337 10
63.66310 13
63.68282 13
63.70254 13
63.72226 9
63.74198 8
63.76170 7
63.78142 11
63.80115 20
63.82087 22
63.84059 19
63.86031 16
63.88003 10
63.89975 15
63.91947 19
63.93920 21
63.95892 23
63.97864 17
63.99836 11
64.01808 6
64.03780 2
64.05752 8
64.07724 13
64.09697 12
64.11669 15
64.13641 13
64.15613 14
64.17585 16
64.19558 13
64.21530 16
64.23502 20
64.25474 19
64.27446 20
64.29418 15
64.31390 18
64.33362 20
64.35334 20
64.37307 25
64.39279 25
64.41251 22
64.43223 22
64.45195 17
64.47168 22
64.49140 24
64.51112 23
64.53083 24
64.55056 19
64.57028 17
64.59000 20
64.60972 20
64.62944 25
64.64917 25
64.66889 21
64.68861 18
64.70833 17
64.72805 19
64.74778 24
64.76749 27
64.78721 26
64.80693 24
64.82666 24
64.84638 22
64.86610 22
64.88582 22
64.90554 25
64.92527 22
64.94499 17
64.96471 19
64.98443 21
65.00415 19
65.02387 15
65.04359 14
65.06331 17
65.08303 19
65.10276 20
65.12248 26
65.14220 26
65.16192 25
65.18164 27
65.20137 26
65.22109 28
65.24081 30
65.26052 20
65.28025 21
65.29997 17
65.31969 18
65.33941 21
65.35913 14
65.37886 18
65.39858 14
65.41830 6
65.43802 12
65.45774 13
65.47747 17
65.49718 19
65.51690 19
65.53662 21
65.55635 19
65.57607 14
65.59579 19
65.61551 15
65.63523 16
65.65496 12
65.67468 14
65.69440 16
65.71412 16
65.73384 14
65.75356 20
65.77328 17
65.79300 24
65.81272 22
65.83245 27
65.85217 28
65.87189 24
65.89161 15
65.91133 14
65.93106 5
65.95078 11
65.97049 12
65.99021 13
66.00994 18
66.02966 19
66.04938 21
66.06910 24
66.08882 24
66.10855 27
66.12827 24
66.14799 16
66.16771 17
66.18743 14
66.20716 12
66.22687 14
66.24659 19
66.26631 19
66.28604 17
66.30576 14
66.32548 12
66.34520 10
66.36492 10
66.38465 16
66.40437 18
66.42409 16
66.44381 16
66.46353 12
66.48325 11
66.50297 14
66.52269 16
66.54241 18
66.56214 24
66.58186 26
66.60158 29
66.62130 28
66.64102 30
66.66075 26
66.68047 21
66.70018 17
66.71991 16
66.73963 12
66.75935 12
66.77907 16
66.79879 16
66.81852 13
66.83824 17
66.85796 21
66.87768 25
66.89740 25
66.91713 27
66.93685 31
66.95656 22
66.97628 18
66.99601 24
67.01573 25
67.03545 23
67.05517 23
67.07489 23
67.09462 21
67.11434 15
67.13406 16
67.15378 16
67.17350 10
67.19322 7
67.21294 6
67.23266 7
67.25238 11
67.27211 18
67.29183 21
67.31155 19
67.33127 19
67.35099 19
67.37072 13
67.39044 17
67.41016 20
67.42987 23
67.4496  24
67.46932 21
67.48904 25
67.50876 22
67.52848 20
67.54821 26
67.56793 27
67.58765 23
67.60737 23
67.62709 17
67.64682 18
67.66654 15
67.68625 15
67.70597 21
67.7257  21
67.74542 16
67.76514 17
67.78486 13
67.80458 12
67.82431 16
67.84403 17
67.86375 21
67.88347 21
67.90319 26
67.92291 28
67.94263 26
67.96235 25
67.98207 28
68.00180 20
68.02152 14
68.04124 8
68.06096 13
68.08068 16
68.10041 19
68.12013 21
68.13985 19
68.15956 16
68.17929 10
68.19901 9
68.21873 10
68.23845 19
68.25817 29
68.27790 32
68.29762 29
68.31734 26
68.33706 25
68.35678 20
68.37651 12
68.39622 20
68.41594 26
68.43566 22
68.45539 17
68.47511 12
68.49483 14
68.51455 14
68.53427 14
68.55400 19
68.57372 20
68.59344 14
68.61316 13
68.63288 13
68.65260 17
68.67232 20
68.69204 19
68.71176 14
68.73149 15
68.75121 8
68.77093 15
68.79065 21
68.81037 23
68.83010 30
68.84982 31
68.86954 31
68.88925 30
68.90898 23
68.92870 24
68.94842 23
68.96814 18
68.98786 23
69.00759 22
69.02731 19
69.04703 14
69.06675 8
69.08647 7
69.10620 7
69.12591 8
69.14563 7
69.16535 10
69.18508 11
69.20480 10
69.22452 13
69.24424 16
69.26396 15
69.28369 16
69.30341 14
69.32313 16
69.34285 16
69.36257 12
69.38229 17
69.40201 19
69.42173 20
69.44146 20
69.46118 19
69.48090 15
69.50062 15
69.52034 14
69.54007 21
69.55979 24
69.57951 24
69.59923 15
69.61895 11
69.63867 11
69.65839 12
69.67811 12
69.69783 12
69.71756 11
69.73728 7
69.75700 5
69.77672 11
69.79644 20
69.81617 28
69.83589 31
69.85560 30
69.87532 27
69.89505 23
69.91477 23
69.93449 26
69.95421 23
69.97393 27
69.99366 25
70.01338 21
70.03310 14
70.05282 13
70.07254 13
70.09227 13
70.11198 6
70.13170 9
70.15142 8
70.17115 8
70.19087 9
70.21059 12
70.23031 12
70.25003 10
70.26976 6
70.28948 11
70.30920 15
70.32892 20
70.34864 24
70.36836 25
70.38808 21
70.40780 16
70.42752 10
70.44725 8
70.46697 9
70.48669 9
70.50641 12
70.52613 15
70.54586 14
70.56558 13
70.58529 9
70.60501 8
70.62474 11
70.64446 15
70.66418 17
70.68390 20
70.70362 19
70.72335 17
70.74307 10
70.76279 14
70.78251 21
70.80223 25
70.82195 22
70.84167 21
70.86139 16
70.88111 8
70.90084 3
70.92056 8
70.94028 19
70.96000 21
70.97972 22
70.99945 23
71.01917 18
71.03889 10
71.05861 8
71.07833 15
71.09805 21
71.11777 21
71.13749 17
71.15721 16
71.17694 11
71.19666 11
71.21638 12
71.23610 14
71.25582 14
71.27555 9
71.29527 4
71.31498 0
71.33470 2
71.35443 16
71.37415 27
71.39387 34
71.41359 40
71.43331 41
71.45304 39
71.47276 24
71.49248 18
71.51220 18
71.53192 13
71.55164 7
71.57136 7
71.59108 6
71.61080 8
71.63053 9
71.65025 11
71.66997 11
71.68969 10
71.70941 8
71.72914 9
71.74886 6
71.76858 6
71.78830 8
71.80802 12
71.82774 13
71.84746 16
71.86718 19
71.88690 18
71.90663 12
71.92635 8
71.94607 5
71.96579 15
71.98551 23
72.00524 30
72.02496 32
72.04467 28
72.0644  22
72.08412 15
72.10384 11
72.12356 13
72.14328 15
72.16301 16
72.18273 16
72.20245 16
72.22217 17
72.24189 16
72.26162 12
72.28133 8
72.30105 8
72.32077 11
72.3405  11
72.36022 13
72.37994 15
72.39966 15
72.41938 13
72.43911 11
72.45883 12
72.47855 19
72.49827 20
72.51799 21
72.53771 18
72.55743 15
72.57715 11
72.59687 6
72.6166  12
72.63632 17
72.65604 18
72.67576 21
72.69548 17
72.71521 14
72.73493 15
72.75465 14
72.77436 20
72.79409 20
72.81381 16
72.83353 14
72.85325 8
72.87297 3
72.8927  3
72.91242 2
72.93214 8
72.95186 14
72.97158 16
72.99131 19
73.01102 19
73.03074 16
73.05046 12
73.07019 14
73.08991 16
73.10963 17
73.12935 16
73.14907 15
73.1688  12
73.18852 7
73.20824 5
73.22796 14
73.24768 19
73.26740 19
73.28712 21
73.30684 18
73.32656 13
73.34629 9
73.36601 13
73.38573 19
73.40545 23
73.42517 24
73.44490 23
73.46462 18
73.48434 13
73.50405 9
73.52378 11
73.54350 9
73.56322 12
73.58294 10
73.60266 12
73.62239 13
73.64211 17
73.66183 22
73.68155 24
73.70127 22
73.72100 16
73.74071 14
73.76043 15
73.78015 11
73.79988 14
73.81960 13
73.83932 12
73.85904 6
73.87876 2
73.89849 6
73.91821 7
73.93793 10
73.95765 11
73.97737 13
73.99709 17
74.01681 18
74.03653 18
74.05625 17
74.07598 18
74.09570 21
74.11542 23
74.13514 27
74.15486 25
74.17459 24
74.19431 23
74.21403 21
74.23374 18
74.25347 18
74.27319 19
74.29291 15
74.31263 9
74.33235 8
74.35208 9
74.37180 11
74.39152 11
74.41124 14
74.43096 17
74.45069 24
74.47040 27
74.49012 28
74.50985 29
74.52957 33
74.54929 33
74.56901 40
74.58873 53
74.60845 66
74.62818 77
74.64790 87
74.66762 106
74.68734 135
74.70706 163
74.72678 212
74.74650 273
74.76622 335
74.78595 397
74.80567 438
74.82539 472
74.84511 487
74.86483 490
74.88456 498
74.90428 500
74.92400 489
74.94372 458
74.96344 402
74.98316 342
75.00288 265
75.02260 212
75.04232 174
75.06205 142
75.08177 113
75.10149 86
75.12121 66
75.14093 50
75.16066 29
75.18038 26
75.20009 22
75.21981 21
75.23954 21
75.25926 17
75.27898 21
75.29870 23
75.31842 25
75.33815 24
75.35787 21
75.37759 19
75.39731 19
75.41703 13
75.43675 12
75.45647 14
75.47619 16
75.49591 17
75.51564 19
75.53536 18
75.55508 18
75.57480 17
75.59452 16
75.61425 16
75.63397 15
75.65369 17
75.67340 17
75.69313 11
75.71285 10
75.73257 12
75.75229 15
75.77201 16
75.79174 16
75.81146 15
75.83118 10
75.85090 5
75.87062 4
75.89035 8
75.91007 11
75.92978 11
75.94950 11
75.96923 10
75.98895 7
76.00867 8
76.02839 3
76.04811 7
76.06784 9
76.08756 13
76.10728 18
76.12700 25
76.14672 26
76.16644 23
76.18616 17
76.20588 16
76.22560 14
76.24533 15
76.26505 12
76.28477 9
76.30449 11
76.32421 10
76.34394 11
76.36366 11
76.38338 16
76.40309 20
76.42282 20
76.44254 18
76.46226 20
76.48198 16
76.50170 15
76.52143 9
76.54115 11
76.56087 9
76.58059 10
76.60031 10
76.62004 9
76.63976 5
76.65947 5
76.67919 5
76.69892 9
76.71864 10
76.73836 11
76.75808 13
76.77780 14
76.79753 13
76.81725 11
76.83697 10
76.85669 9
76.87641 7
76.89613 2
76.91585 4
76.93557 8
76.95529 9
76.97502 9
76.99474 11
77.01446 13
77.03418 14
77.05390 11
77.07363 11
77.09335 10
77.11307 7
77.13279 3
77.15251 6
77.17223 14
77.19195 21
77.21167 24
77.2314  27
77.25112 23
77.27084 23
77.29056 14
77.31028 11
77.33000 14
77.34973 17
77.36945 19
77.38916 18
77.40889 12
77.42861 9
77.44833 6
77.46805 2
77.48777 5
77.5075  7
77.52722 10
77.54694 13
77.56666 12
77.58638 7
77.60611 7
77.62582 7
77.64554 8
77.66526 11
77.68499 11
77.70471 14
77.72443 16
77.74415 12
77.76387 12
77.7836  11
77.80332 14
77.82304 13
77.84276 14
77.86248 13
77.88220 19
77.90192 19
77.92164 22
77.94136 16
77.96109 21
77.98081 16
78.00053 21
78.02025 16
78.03997 16
78.0597  15
78.07942 13
78.09913 9
78.11885 10
78.13858 8
78.15830 12
78.17802 11
78.19774 8
78.21746 6
78.23719 5
78.25691 7
78.27663 8
78.29635 10
78.31607 10
78.3358  9
78.35551 12
78.37523 14
78.39495 18
78.41468 22
78.43440 20
78.45412 20
78.47384 18
78.49356 15
78.51329 13
78.53301 16
78.55273 14
78.57245 13
78.59217 12
78.61189 10
78.63161 15
78.65133 15
78.67105 14
78.69078 16
78.71050 13
78.73022 8
78.74994 7
78.76966 1
78.78939 9
78.80911 13
78.82882 18
78.84854 22
78.86827 19
78.88799 18
78.90771 17
78.92743 16
78.94715 19
78.96688 24
78.98660 25
79.00632 25
79.02604 19
79.04576 16
79.06549 13
79.08520 14
79.10492 12
79.12464 11
79.14437 7
79.16409 5
79.18381 5
79.20353 6
79.22325 12
79.24298 19
79.26270 19
79.28242 19
79.30214 18
79.32186 17
79.34158 14
79.36130 9
79.38102 10
79.40074 8
79.42047 5
79.44019 7
79.45991 9
79.47963 8
79.49935 4
79.51908 6
79.53880 15
79.55851 16
79.57823 24
79.59796 29
79.61768 29
79.63740 23
79.65712 15
79.67684 15
79.69657 14
79.71629 13
79.73601 16
79.75573 20
79.77545 18
79.79518 20
79.81489 19
79.83461 18
79.85434 12
79.87406 11
79.89378 11
79.91350 12
79.93322 13
79.95295 17
79.97267 22
79.99239 26
80.01211 29
80.03183 28
80.05155 26
80.07127 17
80.09099 11
80.11071 5
80.13044 3
80.15016 8
80.16988 13
80.18960 13
80.20932 11
80.22905 6
80.24877 8
80.26849 6
80.28820 5
80.30793 9
80.32765 12
80.34737 15
80.36709 17
80.38681 14
80.40654 14
80.42626 11
80.44598 9
80.46570 8
80.48542 9
80.50515 12
80.52486 17
80.54458 18
80.56430 15
80.58403 17
80.60375 16
80.62347 17
80.64319 18
80.66291 19
80.68264 24
80.70236 20
80.72208 17
80.74180 21
80.76152 22
80.78124 25
80.80096 25
80.82068 25
80.84040 26
80.86013 23
80.87985 20
80.89957 22
80.91929 20
80.93901 18
80.95874 14
80.97846 14
80.99818 19
81.01789 19
81.03762 21
81.05734 23
81.07706 19
81.09678 13
81.11650 8
81.13623 6
81.15595 4
81.17567 4
81.19539 12
81.21511 17
81.23484 20
81.25455 19
81.27427 15
81.29399 13
81.31372 9
81.33344 10
81.35316 12
81.37288 17
81.39260 18
81.41233 18
81.43205 14
81.45177 13
81.47149 11
81.49121 9
81.51093 11
81.53065 19
81.55037 27
81.57009 30
81.58982 34
81.60954 32
81.62926 26
81.64898 16
81.66870 11
81.68843 14
81.70815 18
81.72787 20
81.74758 25
81.76731 25
81.78703 18
81.80675 10
81.82647 0
81.84619 6
81.86592 8
81.88564 15
81.90536 16
81.92508 17
81.94480 13
81.96453 9
81.98424 1
82.00396 8
82.02368 12
82.04341 19
82.06313 20
82.08285 25
82.10257 21
82.12229 21
82.14202 19
82.16174 25
82.18146 30
82.20118 29
82.22090 26
82.24062 25
82.26034 19
82.28006 18
82.29978 15
82.31951 18
82.33923 13
82.35895 12
82.37867 12
82.39839 10
82.41812 13
82.43784 18
82.45756 24
82.47728 26
82.49700 20
82.51672 22
82.53644 18
82.55616 13
82.57589 15
82.59561 18
82.61533 20
82.63505 23
82.65477 19
82.6745  18
82.69422 17
82.71393 16
82.73365 23
82.75338 28
82.77310 30
82.79282 35
82.81254 35
82.83226 30
82.85199 26
82.87171 21
82.89143 20
82.91115 21
82.93087 23
82.95059 28
82.97031 31
82.99003 24
83.00975 22
83.02948 21
83.04920 19
83.06892 18
83.08864 21
83.10836 26
83.12809 27
83.14781 20
83.16753 18
83.18725 11
83.20697 10
83.22669 9
83.24641 12
83.26613 18
83.28585 23
83.30558 23
83.32530 24
83.34502 16
83.36474 21
83.38446 23
83.40419 27
83.42391 29
83.44362 31
83.46334 29
83.48307 23
83.50279 16
83.52251 15
83.54223 10
83.56195 9
83.58168 8
83.60140 17
83.62112 19
83.64084 21
83.66056 23
83.68028 21
83.70000 17
83.71972 14
83.73944 13
83.75917 15
83.77889 13
83.79861 18
83.81833 19
83.83805 23
83.85778 26
83.87750 25
83.89722 25
83.91694 28
83.93666 29
83.95638 28
83.97610 27
83.99582 23
84.01554 19
84.03527 17
84.05499 17
84.07471 23
84.09443 21
84.11415 16
84.13388 14
84.15360 10
84.17331 7
84.19303 10
84.21276 16
84.23248 20
84.25220 25
84.27192 23
84.29164 22
84.31137 21
84.33109 20
84.35081 19
84.37053 23
84.39025 23
84.40997 22
84.42969 23
84.44941 21
84.46913 26
84.48886 31
84.50858 33
84.52830 38
84.54802 35
84.56774 24
84.58747 20
84.60719 19
84.62691 23
84.64663 21
84.66635 21
84.68607 19
84.70579 16
84.72551 10
84.74523 6
84.76496 7
84.78468 8
84.80440 5
84.82412 9
84.84384 11
84.86357 12
84.88329 13
84.90300 13
84.92272 11
84.94245 13
84.96217 11
84.98189 18
85.00161 25
85.02133 29
85.04106 30
85.06078 30
85.08050 24
85.10022 18
85.11994 16
85.13966 17
85.15938 19
85.17910 17
85.19883 9
85.21855 9
85.23827 5
85.25799 10
85.27771 19
85.29744 22
85.31716 19
85.33688 18
85.35660 17
85.37632 17
85.39604 14
85.41576 19
85.43548 20
85.45520 20
85.47493 17
85.49465 23
85.51437 28
85.53409 24
85.55381 19
85.57354 23
85.59326 22
85.61298 22
85.63269 15
85.65242 15
85.67214 17
85.69186 13
85.71158 13
85.73130 18
85.75103 18
85.77075 11
85.79047 8
85.81019 11
85.82991 15
85.84964 15
85.86935 16
85.88907 16
85.90879 12
85.92852 5
85.94824 8
85.96796 11
85.98768 18
86.00740 22
86.02713 25
86.04685 22
86.06657 21
86.08629 18
86.10601 17
86.12573 17
86.14545 17
86.16517 17
86.18489 19
86.20462 16
86.22434 15
86.24406 19
86.26378 19
86.28350 15
86.30323 11
86.32295 16
86.34267 18
86.36238 16
86.38211 15
86.40183 19
86.42155 15
86.44127 12
86.46099 13
86.48072 18
86.50044 21
86.52016 19
86.53988 21
86.55960 19
86.57933 15
86.59904 13
86.61876 17
86.63848 15
86.65821 19
86.67793 21
86.69765 23
86.71737 24
86.73709 22
86.75682 17
86.77654 14
86.79626 9
86.81598 11
86.83570 17
86.85542 18
86.87514 24
86.89486 22
86.91458 19
86.93431 14
86.95403 15
86.97375 15
86.99347 15
87.01319 12
87.03292 18
87.05264 22
87.07236 25
87.09207 25
87.11180 23
87.13152 21
87.15124 12
87.17096 13
87.19068 15
87.21041 17
87.23013 14
87.24985 13
87.26957 15
87.28929 17
87.30902 13
87.32873 19
87.34845 16
87.36817 13
87.38790 7
87.40762 7
87.42734 10
87.44706 12
87.46678 14
87.48651 18
87.50623 24
87.52595 25
87.54567 26
87.56539 27
87.58511 26
87.60483 25
87.62455 20
87.64427 18
87.66400 16
87.68372 10
87.70344 12
87.72316 10
87.74288 12
87.76261 13
87.78233 11
87.80204 14
87.82177 17
87.84149 16
87.86121 21
87.88093 18
87.90065 17
87.92038 18
87.94010 18
87.95982 19
87.97954 17
87.99926 15
88.01899 10
88.03871 11
88.05842 11
88.07814 17
88.09787 18
88.11759 17
88.13731 15
88.15703 15
88.17675 8
88.19648 8
88.21620 4
88.23592 5
88.25564 10
88.27536 9
88.29508 17
88.31480 19
88.33452 22
88.35424 20
88.37397 23
88.39369 23
88.41341 21
88.43313 16
88.45285 22
88.47258 22
88.49230 27
88.51202 27
88.53173 30
88.55146 29
88.57118 24
88.59090 23
88.61062 20
88.63034 20
88.65007 17
88.66979 14
88.68951 18
88.70923 20
88.72895 19
88.74868 20
88.76840 15
88.78811 11
88.80783 4
88.82756 4
88.84728 4
88.86700 0
88.88672 6
88.90644 13
88.92617 19
88.94589 23
88.96561 28
88.98533 34
89.00505 33
89.02477 32
89.04449 35
89.06421 31
89.08393 28
89.10366 18
89.12338 16
89.14310 19
89.16282 18
89.18254 19
89.20227 18
89.22199 12
89.24171 11
89.26142 8
89.28115 10
89.30087 13
89.32059 12
89.34031 12
89.36003 12
89.37976 14
89.39948 19
89.41920 21
89.43892 21
89.45864 20
89.47837 20
89.49809 24
89.51780 25
89.53752 27
89.55725 26
89.57697 32
89.59669 30
89.61641 31
89.63613 29
89.65586 30
89.67558 25
89.69530 15
89.71502 15
89.73474 19
89.75446 18
89.77418 18
89.79390 17
89.81362 19
89.83335 18
89.85307 12
89.87279 14
89.89251 16
89.91223 16
89.93196 15
89.95168 19
89.97140 19
89.99111 19
