;content of D:\data\result\mecham\???\20231225-89741\800-1.raw - (Diffrac Plus V4 file)
_FILEVERSION = 3
_SAMPLE
_+SAMPLE
_USER = Lab Manager
_GONIOMETER_CODE = 21
_STAGE_CODE = 7
; Goniometer : D8 theta/theta, stage : Chi drive
_SAMPLE_CHANGER_CODE = 0
_ATTACHMENTS_CODE = 0
_GONIOMETER_RADIUS = 280
_MONOCHROMATOR = 0
; Incident beam monochromator : None
_BETA_FILTER = N
_ANALYZER_CODE = 0
; Received beam analyzer : None
_DATEMEASURED = 25-Dec-2023 11:42:07
_RUNTIME = 11.1886
_WL_UNIT = A
_WL1 = 1.5406
_WL2 = 1.54439
_WL3 = 1.39222
_WLRATIO = 0.5
_ANODE = Cu
_V4_INF_USER = Lab Manager
_V4_INF_CREATOR = V5Converter
_V4_INF_CREATOR_VERSION = 4.4.16.0

; Data for range 1
_DRIVE = COUPLED
_STEPTIME = 57.6
_STEPSIZE = 0.019721
_STEPMODE = C
_START = 20
_THETA = 10
_2THETA = 20
_KHI = 0
_PHI = 0
_DETECTORSLIT = out
_AUX1 = 0
_TIMESTARTED = 0
_KV = 40
_MA = 40
_RANGE_WL = 1.5406
_3DPLANE = 0
_V4_PSD2THETA = 9999
_V4_PSDCHANNEL1 = 0
_V4_PSDAPERTURE = 2.839876
_V4_PSDTYPE = 5
_V4_PSDFIXED = 0
_V4_COUNTERS_MASK = 1
_V4_DRIVES_MASK = 0
_V4_ENCODERS_MASK = 0
_2THETACOUNTS = 1
; 2THETA	Cnt2_D1	
20.000000	185.000000	
20.019721	141.000000	
20.039443	160.000000	
20.059164	158.000000	
20.078885	179.000000	
20.098607	194.000000	
20.118328	159.000000	
20.138050	188.000000	
20.157771	148.000000	
20.177492	150.000000	
20.197214	148.000000	
20.216935	163.000000	
20.236656	146.000000	
20.256378	169.000000	
20.276099	178.000000	
20.295820	162.000000	
20.315542	155.000000	
20.335263	170.000000	
20.354985	187.000000	
20.374706	165.000000	
20.394427	164.000000	
20.414149	164.000000	
20.433870	160.000000	
20.453591	180.000000	
20.473313	165.000000	
20.493034	178.000000	
20.512755	182.000000	
20.532477	175.000000	
20.552198	166.000000	
20.571920	167.000000	
20.591641	167.000000	
20.611362	177.000000	
20.631084	172.000000	
20.650805	190.000000	
20.670526	178.000000	
20.690248	165.000000	
20.709969	170.000000	
20.729690	165.000000	
20.749412	152.000000	
20.769133	167.000000	
20.788855	159.000000	
20.808576	170.000000	
20.828297	171.000000	
20.848019	162.000000	
20.867740	184.000000	
20.887461	166.000000	
20.907183	171.000000	
20.926904	164.000000	
20.946625	165.000000	
20.966347	157.000000	
20.986068	153.000000	
21.005790	151.000000	
21.025511	172.000000	
21.045232	152.000000	
21.064954	167.000000	
21.084675	186.000000	
21.104396	170.000000	
21.124118	173.000000	
21.143839	166.000000	
21.163560	176.000000	
21.183282	159.000000	
21.203003	148.000000	
21.222725	167.000000	
21.242446	156.000000	
21.262167	132.000000	
21.281889	160.000000	
21.301610	189.000000	
21.321331	177.000000	
21.341053	161.000000	
21.360774	165.000000	
21.380495	173.000000	
21.400217	165.000000	
21.419938	159.000000	
21.439660	158.000000	
21.459381	186.000000	
21.479102	179.000000	
21.498824	159.000000	
21.518545	164.000000	
21.538266	175.000000	
21.557988	165.000000	
21.577709	180.000000	
21.597430	170.000000	
21.617152	165.000000	
21.636873	175.000000	
21.656595	185.000000	
21.676316	172.000000	
21.696037	148.000000	
21.715759	190.000000	
21.735480	161.000000	
21.755201	159.000000	
21.774923	176.000000	
21.794644	174.000000	
21.814365	178.000000	
21.834087	163.000000	
21.853808	147.000000	
21.873530	149.000000	
21.893251	160.000000	
21.912972	153.000000	
21.932694	176.000000	
21.952415	177.000000	
21.972136	179.000000	
21.991858	166.000000	
22.011579	174.000000	
22.031300	148.000000	
22.051022	164.000000	
22.070743	162.000000	
22.090465	164.000000	
22.110186	163.000000	
22.129907	186.000000	
22.149629	159.000000	
22.169350	178.000000	
22.189071	167.000000	
22.208793	177.000000	
22.228514	170.000000	
22.248235	168.000000	
22.267957	155.000000	
22.287678	173.000000	
22.307400	157.000000	
22.327121	169.000000	
22.346842	161.000000	
22.366564	175.000000	
22.386285	162.000000	
22.406006	172.000000	
22.425728	161.000000	
22.445449	172.000000	
22.465170	157.000000	
22.484892	171.000000	
22.504613	160.000000	
22.524335	166.000000	
22.544056	173.000000	
22.563777	175.000000	
22.583499	173.000000	
22.603220	184.000000	
22.622941	183.000000	
22.642663	172.000000	
22.662384	167.000000	
22.682105	170.000000	
22.701827	173.000000	
22.721548	153.000000	
22.741270	163.000000	
22.760991	162.000000	
22.780712	158.000000	
22.800434	153.000000	
22.820155	165.000000	
22.839876	164.000000	
22.859598	166.000000	
22.879319	169.000000	
22.899040	152.000000	
22.918762	168.000000	
22.938483	148.000000	
22.958205	181.000000	
22.977926	172.000000	
22.997647	158.000000	
23.017369	156.000000	
23.037090	149.000000	
23.056811	173.000000	
23.076533	170.000000	
23.096254	148.000000	
23.115975	166.000000	
23.135697	177.000000	
23.155418	164.000000	
23.175140	188.000000	
23.194861	193.000000	
23.214582	174.000000	
23.234304	182.000000	
23.254025	157.000000	
23.273746	161.000000	
23.293468	139.000000	
23.313189	170.000000	
23.332910	150.000000	
23.352632	169.000000	
23.372353	162.000000	
23.392075	143.000000	
23.411796	166.000000	
23.431517	148.000000	
23.451239	165.000000	
23.470960	138.000000	
23.490681	172.000000	
23.510403	198.000000	
23.530124	155.000000	
23.549845	165.000000	
23.569567	140.000000	
23.589288	166.000000	
23.609010	151.000000	
23.628731	179.000000	
23.648452	161.000000	
23.668174	187.000000	
23.687895	155.000000	
23.707616	173.000000	
23.727338	168.000000	
23.747059	164.000000	
23.766780	157.000000	
23.786502	175.000000	
23.806223	165.000000	
23.825945	175.000000	
23.845666	146.000000	
23.865387	161.000000	
23.885109	177.000000	
23.904830	166.000000	
23.924551	154.000000	
23.944273	170.000000	
23.963994	168.000000	
23.983715	153.000000	
24.003437	171.000000	
24.023158	171.000000	
24.042880	169.000000	
24.062601	182.000000	
24.082322	167.000000	
24.102044	171.000000	
24.121765	188.000000	
24.141486	175.000000	
24.161208	185.000000	
24.180929	177.000000	
24.200650	199.000000	
24.220372	218.000000	
24.240093	216.000000	
24.259815	223.000000	
24.279536	260.000000	
24.299257	244.000000	
24.318979	271.000000	
24.338700	285.000000	
24.358421	327.000000	
24.378143	382.000000	
24.397864	374.000000	
24.417586	359.000000	
24.437307	346.000000	
24.457028	352.000000	
24.476750	305.000000	
24.496471	345.000000	
24.516192	298.000000	
24.535914	235.000000	
24.555635	252.000000	
24.575356	241.000000	
24.595078	206.000000	
24.614799	200.000000	
24.634521	205.000000	
24.654242	190.000000	
24.673963	187.000000	
24.693685	178.000000	
24.713406	163.000000	
24.733127	181.000000	
24.752849	168.000000	
24.772570	166.000000	
24.792291	188.000000	
24.812013	163.000000	
24.831734	153.000000	
24.851456	159.000000	
24.871177	171.000000	
24.890898	144.000000	
24.910620	161.000000	
24.930341	170.000000	
24.950062	200.000000	
24.969784	140.000000	
24.989505	155.000000	
25.009226	160.000000	
25.028948	169.000000	
25.048669	171.000000	
25.068391	148.000000	
25.088112	156.000000	
25.107833	150.000000	
25.127555	144.000000	
25.147276	169.000000	
25.166997	160.000000	
25.186719	176.000000	
25.206440	161.000000	
25.226161	146.000000	
25.245883	158.000000	
25.265604	152.000000	
25.285326	161.000000	
25.305047	157.000000	
25.324768	164.000000	
25.344490	153.000000	
25.364211	139.000000	
25.383932	154.000000	
25.403654	162.000000	
25.423375	156.000000	
25.443096	170.000000	
25.462818	165.000000	
25.482539	152.000000	
25.502261	153.000000	
25.521982	166.000000	
25.541703	148.000000	
25.561425	146.000000	
25.581146	178.000000	
25.600867	161.000000	
25.620589	159.000000	
25.640310	176.000000	
25.660031	142.000000	
25.679753	159.000000	
25.699474	165.000000	
25.719196	152.000000	
25.738917	161.000000	
25.758638	181.000000	
25.778360	143.000000	
25.798081	161.000000	
25.817802	144.000000	
25.837524	173.000000	
25.857245	158.000000	
25.876966	129.000000	
25.896688	168.000000	
25.916409	185.000000	
25.936131	156.000000	
25.955852	168.000000	
25.975573	191.000000	
25.995295	162.000000	
26.015016	175.000000	
26.034737	141.000000	
26.054459	169.000000	
26.074180	164.000000	
26.093901	148.000000	
26.113623	151.000000	
26.133344	139.000000	
26.153066	170.000000	
26.172787	159.000000	
26.192508	174.000000	
26.212230	159.000000	
26.231951	174.000000	
26.251672	139.000000	
26.271394	157.000000	
26.291115	164.000000	
26.310836	174.000000	
26.330558	145.000000	
26.350279	169.000000	
26.370001	151.000000	
26.389722	171.000000	
26.409443	186.000000	
26.429165	162.000000	
26.448886	161.000000	
26.468607	167.000000	
26.488329	151.000000	
26.508050	148.000000	
26.527771	173.000000	
26.547493	158.000000	
26.567214	152.000000	
26.586936	164.000000	
26.606657	180.000000	
26.626378	129.000000	
26.646100	155.000000	
26.665821	137.000000	
26.685542	162.000000	
26.705264	141.000000	
26.724985	156.000000	
26.744706	166.000000	
26.764428	161.000000	
26.784149	158.000000	
26.803871	147.000000	
26.823592	169.000000	
26.843313	155.000000	
26.863035	164.000000	
26.882756	163.000000	
26.902477	139.000000	
26.922199	147.000000	
26.941920	172.000000	
26.961641	149.000000	
26.981363	155.000000	
27.001084	149.000000	
27.020806	149.000000	
27.040527	175.000000	
27.060248	160.000000	
27.079970	168.000000	
27.099691	157.000000	
27.119412	155.000000	
27.139134	138.000000	
27.158855	157.000000	
27.178576	145.000000	
27.198298	178.000000	
27.218019	147.000000	
27.237741	190.000000	
27.257462	144.000000	
27.277183	172.000000	
27.296905	145.000000	
27.316626	166.000000	
27.336347	167.000000	
27.356069	152.000000	
27.375790	160.000000	
27.395511	165.000000	
27.415233	131.000000	
27.434954	183.000000	
27.454676	173.000000	
27.474397	150.000000	
27.494118	181.000000	
27.513840	156.000000	
27.533561	159.000000	
27.553282	151.000000	
27.573004	152.000000	
27.592725	170.000000	
27.612446	146.000000	
27.632168	176.000000	
27.651889	174.000000	
27.671611	136.000000	
27.691332	160.000000	
27.711053	156.000000	
27.730775	153.000000	
27.750496	153.000000	
27.770217	165.000000	
27.789939	135.000000	
27.809660	162.000000	
27.829381	164.000000	
27.849103	156.000000	
27.868824	153.000000	
27.888546	159.000000	
27.908267	144.000000	
27.927988	154.000000	
27.947710	165.000000	
27.967431	178.000000	
27.987152	157.000000	
28.006874	153.000000	
28.026595	162.000000	
28.046316	176.000000	
28.066038	156.000000	
28.085759	161.000000	
28.105481	142.000000	
28.125202	171.000000	
28.144923	149.000000	
28.164645	173.000000	
28.184366	179.000000	
28.204087	162.000000	
28.223809	138.000000	
28.243530	163.000000	
28.263251	161.000000	
28.282973	157.000000	
28.302694	187.000000	
28.322416	143.000000	
28.342137	151.000000	
28.361858	146.000000	
28.381580	145.000000	
28.401301	169.000000	
28.421022	146.000000	
28.440744	142.000000	
28.460465	147.000000	
28.480186	146.000000	
28.499908	141.000000	
28.519629	170.000000	
28.539351	160.000000	
28.559072	173.000000	
28.578793	171.000000	
28.598515	156.000000	
28.618236	165.000000	
28.637957	175.000000	
28.657679	170.000000	
28.677400	172.000000	
28.697121	140.000000	
28.716843	127.000000	
28.736564	147.000000	
28.756286	145.000000	
28.776007	168.000000	
28.795728	162.000000	
28.815450	160.000000	
28.835171	160.000000	
28.854892	140.000000	
28.874614	157.000000	
28.894335	159.000000	
28.914056	139.000000	
28.933778	166.000000	
28.953499	157.000000	
28.973221	164.000000	
28.992942	167.000000	
29.012663	155.000000	
29.032385	177.000000	
29.052106	160.000000	
29.071827	171.000000	
29.091549	145.000000	
29.111270	152.000000	
29.130991	166.000000	
29.150713	137.000000	
29.170434	153.000000	
29.190156	157.000000	
29.209877	168.000000	
29.229598	155.000000	
29.249320	141.000000	
29.269041	162.000000	
29.288762	173.000000	
29.308484	166.000000	
29.328205	158.000000	
29.347926	153.000000	
29.367648	152.000000	
29.387369	153.000000	
29.407091	164.000000	
29.426812	147.000000	
29.446533	158.000000	
29.466255	157.000000	
29.485976	156.000000	
29.505697	184.000000	
29.525419	171.000000	
29.545140	150.000000	
29.564861	155.000000	
29.584583	146.000000	
29.604304	144.000000	
29.624026	166.000000	
29.643747	161.000000	
29.663468	153.000000	
29.683190	141.000000	
29.702911	163.000000	
29.722632	168.000000	
29.742354	200.000000	
29.762075	180.000000	
29.781796	186.000000	
29.801518	172.000000	
29.821239	177.000000	
29.840961	228.000000	
29.860682	213.000000	
29.880403	203.000000	
29.900125	192.000000	
29.919846	222.000000	
29.939567	242.000000	
29.959289	215.000000	
29.979010	204.000000	
29.998731	185.000000	
30.018453	191.000000	
30.038174	229.000000	
30.057896	170.000000	
30.077617	177.000000	
30.097338	219.000000	
30.117060	165.000000	
30.136781	181.000000	
30.156502	179.000000	
30.176224	172.000000	
30.195945	195.000000	
30.215666	139.000000	
30.235388	156.000000	
30.255109	205.000000	
30.274831	147.000000	
30.294552	169.000000	
30.314273	162.000000	
30.333995	151.000000	
30.353716	156.000000	
30.373437	174.000000	
30.393159	153.000000	
30.412880	156.000000	
30.432601	157.000000	
30.452323	152.000000	
30.472044	178.000000	
30.491766	140.000000	
30.511487	173.000000	
30.531208	166.000000	
30.550930	153.000000	
30.570651	150.000000	
30.590372	161.000000	
30.610094	147.000000	
30.629815	150.000000	
30.649536	158.000000	
30.669258	136.000000	
30.688979	151.000000	
30.708701	154.000000	
30.728422	154.000000	
30.748143	165.000000	
30.767865	156.000000	
30.787586	164.000000	
30.807307	168.000000	
30.827029	155.000000	
30.846750	159.000000	
30.866471	175.000000	
30.886193	139.000000	
30.905914	159.000000	
30.925636	138.000000	
30.945357	153.000000	
30.965078	163.000000	
30.984800	177.000000	
31.004521	154.000000	
31.024242	189.000000	
31.043964	152.000000	
31.063685	136.000000	
31.083406	162.000000	
31.103128	159.000000	
31.122849	147.000000	
31.142571	159.000000	
31.162292	154.000000	
31.182013	145.000000	
31.201735	162.000000	
31.221456	156.000000	
31.241177	137.000000	
31.260899	145.000000	
31.280620	134.000000	
31.300341	158.000000	
31.320063	150.000000	
31.339784	148.000000	
31.359506	164.000000	
31.379227	133.000000	
31.398948	154.000000	
31.418670	166.000000	
31.438391	171.000000	
31.458112	147.000000	
31.477834	160.000000	
31.497555	139.000000	
31.517276	158.000000	
31.536998	175.000000	
31.556719	163.000000	
31.576441	150.000000	
31.596162	151.000000	
31.615883	170.000000	
31.635605	156.000000	
31.655326	148.000000	
31.675047	138.000000	
31.694769	156.000000	
31.714490	170.000000	
31.734211	156.000000	
31.753933	172.000000	
31.773654	164.000000	
31.793376	162.000000	
31.813097	169.000000	
31.832818	158.000000	
31.852540	148.000000	
31.872261	145.000000	
31.891982	144.000000	
31.911704	137.000000	
31.931425	152.000000	
31.951146	160.000000	
31.970868	157.000000	
31.990589	148.000000	
32.010311	147.000000	
32.030032	138.000000	
32.049753	149.000000	
32.069475	165.000000	
32.089196	167.000000	
32.108917	143.000000	
32.128639	159.000000	
32.148360	173.000000	
32.168081	154.000000	
32.187803	169.000000	
32.207524	153.000000	
32.227246	193.000000	
32.246967	142.000000	
32.266688	155.000000	
32.286410	174.000000	
32.306131	156.000000	
32.325852	148.000000	
32.345574	166.000000	
32.365295	162.000000	
32.385016	148.000000	
32.404738	140.000000	
32.424459	169.000000	
32.444181	143.000000	
32.463902	154.000000	
32.483623	159.000000	
32.503345	163.000000	
32.523066	152.000000	
32.542787	139.000000	
32.562509	163.000000	
32.582230	175.000000	
32.601951	163.000000	
32.621673	190.000000	
32.641394	156.000000	
32.661116	148.000000	
32.680837	165.000000	
32.700558	150.000000	
32.720280	147.000000	
32.740001	147.000000	
32.759722	166.000000	
32.779444	152.000000	
32.799165	171.000000	
32.818886	148.000000	
32.838608	149.000000	
32.858329	169.000000	
32.878051	171.000000	
32.897772	151.000000	
32.917493	165.000000	
32.937215	162.000000	
32.956936	148.000000	
32.976657	166.000000	
32.996379	155.000000	
33.016100	164.000000	
33.035821	163.000000	
33.055543	164.000000	
33.075264	171.000000	
33.094986	158.000000	
33.114707	171.000000	
33.134428	209.000000	
33.154150	198.000000	
33.173871	200.000000	
33.193592	193.000000	
33.213314	215.000000	
33.233035	218.000000	
33.252757	235.000000	
33.272478	242.000000	
33.292199	267.000000	
33.311921	277.000000	
33.331642	291.000000	
33.351363	348.000000	
33.371085	315.000000	
33.390806	350.000000	
33.410527	393.000000	
33.430249	356.000000	
33.449970	381.000000	
33.469692	392.000000	
33.489413	412.000000	
33.509134	350.000000	
33.528856	329.000000	
33.548577	325.000000	
33.568298	321.000000	
33.588020	273.000000	
33.607741	264.000000	
33.627462	257.000000	
33.647184	211.000000	
33.666905	210.000000	
33.686627	213.000000	
33.706348	230.000000	
33.726069	178.000000	
33.745791	228.000000	
33.765512	211.000000	
33.785233	192.000000	
33.804955	201.000000	
33.824676	160.000000	
33.844397	184.000000	
33.864119	152.000000	
33.883840	192.000000	
33.903562	172.000000	
33.923283	159.000000	
33.943004	173.000000	
33.962726	166.000000	
33.982447	152.000000	
34.002168	189.000000	
34.021890	184.000000	
34.041611	162.000000	
34.061332	180.000000	
34.081054	166.000000	
34.100775	156.000000	
34.120497	160.000000	
34.140218	168.000000	
34.159939	156.000000	
34.179661	163.000000	
34.199382	154.000000	
34.219103	176.000000	
34.238825	152.000000	
34.258546	149.000000	
34.278267	163.000000	
34.297989	175.000000	
34.317710	166.000000	
34.337432	131.000000	
34.357153	158.000000	
34.376874	165.000000	
34.396596	181.000000	
34.416317	148.000000	
34.436038	180.000000	
34.455760	135.000000	
34.475481	141.000000	
34.495202	157.000000	
34.514924	160.000000	
34.534645	164.000000	
34.554367	172.000000	
34.574088	174.000000	
34.593809	156.000000	
34.613531	162.000000	
34.633252	129.000000	
34.652973	143.000000	
34.672695	161.000000	
34.692416	166.000000	
34.712137	173.000000	
34.731859	149.000000	
34.751580	150.000000	
34.771302	166.000000	
34.791023	184.000000	
34.810744	158.000000	
34.830466	189.000000	
34.850187	171.000000	
34.869908	173.000000	
34.889630	194.000000	
34.909351	167.000000	
34.929072	171.000000	
34.948794	194.000000	
34.968515	199.000000	
34.988237	210.000000	
35.007958	210.000000	
35.027679	250.000000	
35.047401	241.000000	
35.067122	251.000000	
35.086843	267.000000	
35.106565	275.000000	
35.126286	302.000000	
35.146007	297.000000	
35.165729	319.000000	
35.185450	315.000000	
35.205172	292.000000	
35.224893	312.000000	
35.244614	314.000000	
35.264336	282.000000	
35.284057	297.000000	
35.303778	273.000000	
35.323500	233.000000	
35.343221	257.000000	
35.362942	236.000000	
35.382664	247.000000	
35.402385	246.000000	
35.422107	236.000000	
35.441828	235.000000	
35.461549	198.000000	
35.481271	202.000000	
35.500992	189.000000	
35.520713	196.000000	
35.540435	191.000000	
35.560156	169.000000	
35.579877	183.000000	
35.599599	167.000000	
35.619320	206.000000	
35.639042	182.000000	
35.658763	168.000000	
35.678484	193.000000	
35.698206	193.000000	
35.717927	206.000000	
35.737648	214.000000	
35.757370	205.000000	
35.777091	217.000000	
35.796812	238.000000	
35.816534	217.000000	
35.836255	258.000000	
35.855977	210.000000	
35.875698	227.000000	
35.895419	237.000000	
35.915141	268.000000	
35.934862	279.000000	
35.954583	276.000000	
35.974305	265.000000	
35.994026	263.000000	
36.013747	276.000000	
36.033469	260.000000	
36.053190	268.000000	
36.072912	257.000000	
36.092633	256.000000	
36.112354	258.000000	
36.132076	230.000000	
36.151797	230.000000	
36.171518	202.000000	
36.191240	171.000000	
36.210961	186.000000	
36.230682	198.000000	
36.250404	176.000000	
36.270125	188.000000	
36.289847	182.000000	
36.309568	182.000000	
36.329289	190.000000	
36.349011	163.000000	
36.368732	137.000000	
36.388453	140.000000	
36.408175	153.000000	
36.427896	167.000000	
36.447617	172.000000	
36.467339	159.000000	
36.487060	164.000000	
36.506782	148.000000	
36.526503	156.000000	
36.546224	148.000000	
36.565946	153.000000	
36.585667	172.000000	
36.605388	165.000000	
36.625110	161.000000	
36.644831	176.000000	
36.664552	187.000000	
36.684274	157.000000	
36.703995	151.000000	
36.723717	157.000000	
36.743438	150.000000	
36.763159	161.000000	
36.782881	154.000000	
36.802602	154.000000	
36.822323	173.000000	
36.842045	166.000000	
36.861766	153.000000	
36.881487	147.000000	
36.901209	158.000000	
36.920930	204.000000	
36.940652	177.000000	
36.960373	178.000000	
36.980094	150.000000	
36.999816	157.000000	
37.019537	172.000000	
37.039258	149.000000	
37.058980	155.000000	
37.078701	164.000000	
37.098422	138.000000	
37.118144	132.000000	
37.137865	147.000000	
37.157587	167.000000	
37.177308	157.000000	
37.197029	157.000000	
37.216751	149.000000	
37.236472	151.000000	
37.256193	131.000000	
37.275915	144.000000	
37.295636	163.000000	
37.315357	148.000000	
37.335079	135.000000	
37.354800	166.000000	
37.374522	148.000000	
37.394243	152.000000	
37.413964	142.000000	
37.433686	160.000000	
37.453407	146.000000	
37.473128	146.000000	
37.492850	152.000000	
37.512571	164.000000	
37.532292	160.000000	
37.552014	154.000000	
37.571735	138.000000	
37.591457	144.000000	
37.611178	168.000000	
37.630899	159.000000	
37.650621	144.000000	
37.670342	131.000000	
37.690063	152.000000	
37.709785	162.000000	
37.729506	163.000000	
37.749227	146.000000	
37.768949	157.000000	
37.788670	162.000000	
37.808392	146.000000	
37.828113	163.000000	
37.847834	139.000000	
37.867556	147.000000	
37.887277	158.000000	
37.906998	136.000000	
37.926720	145.000000	
37.946441	155.000000	
37.966162	148.000000	
37.985884	145.000000	
38.005605	151.000000	
38.025327	130.000000	
38.045048	147.000000	
38.064769	160.000000	
38.084491	153.000000	
38.104212	161.000000	
38.123933	171.000000	
38.143655	147.000000	
38.163376	168.000000	
38.183097	144.000000	
38.202819	146.000000	
38.222540	154.000000	
38.242262	138.000000	
38.261983	173.000000	
38.281704	129.000000	
38.301426	156.000000	
38.321147	132.000000	
38.340868	154.000000	
38.360590	129.000000	
38.380311	147.000000	
38.400032	147.000000	
38.419754	155.000000	
38.439475	168.000000	
38.459197	149.000000	
38.478918	151.000000	
38.498639	180.000000	
38.518361	150.000000	
38.538082	163.000000	
38.557803	151.000000	
38.577525	147.000000	
38.597246	150.000000	
38.616967	156.000000	
38.636689	172.000000	
38.656410	151.000000	
38.676132	151.000000	
38.695853	147.000000	
38.715574	144.000000	
38.735296	151.000000	
38.755017	159.000000	
38.774738	147.000000	
38.794460	135.000000	
38.814181	157.000000	
38.833902	142.000000	
38.853624	152.000000	
38.873345	158.000000	
38.893067	115.000000	
38.912788	139.000000	
38.932509	156.000000	
38.952231	144.000000	
38.971952	154.000000	
38.991673	161.000000	
39.011395	156.000000	
39.031116	158.000000	
39.050837	155.000000	
39.070559	120.000000	
39.090280	155.000000	
39.110002	174.000000	
39.129723	153.000000	
39.149444	175.000000	
39.169166	144.000000	
39.188887	146.000000	
39.208608	180.000000	
39.228330	155.000000	
39.248051	133.000000	
39.267772	154.000000	
39.287494	149.000000	
39.307215	141.000000	
39.326937	174.000000	
39.346658	148.000000	
39.366379	133.000000	
39.386101	151.000000	
39.405822	151.000000	
39.425543	126.000000	
39.445265	143.000000	
39.464986	138.000000	
39.484707	139.000000	
39.504429	162.000000	
39.524150	147.000000	
39.543872	138.000000	
39.563593	163.000000	
39.583314	155.000000	
39.603036	148.000000	
39.622757	153.000000	
39.642478	159.000000	
39.662200	168.000000	
39.681921	132.000000	
39.701642	153.000000	
39.721364	154.000000	
39.741085	152.000000	
39.760807	168.000000	
39.780528	147.000000	
39.800249	146.000000	
39.819971	172.000000	
39.839692	155.000000	
39.859413	148.000000	
39.879135	154.000000	
39.898856	172.000000	
39.918577	148.000000	
39.938299	142.000000	
39.958020	150.000000	
39.977742	121.000000	
39.997463	174.000000	
40.017184	165.000000	
40.036906	144.000000	
40.056627	132.000000	
40.076348	134.000000	
40.096070	145.000000	
40.115791	153.000000	
40.135512	148.000000	
40.155234	135.000000	
40.174955	139.000000	
40.194677	128.000000	
40.214398	154.000000	
40.234119	172.000000	
40.253841	168.000000	
40.273562	123.000000	
40.293283	144.000000	
40.313005	146.000000	
40.332726	150.000000	
40.352447	164.000000	
40.372169	137.000000	
40.391890	146.000000	
40.411612	159.000000	
40.431333	160.000000	
40.451054	153.000000	
40.470776	143.000000	
40.490497	168.000000	
40.510218	152.000000	
40.529940	113.000000	
40.549661	145.000000	
40.569382	128.000000	
40.589104	160.000000	
40.608825	140.000000	
40.628547	152.000000	
40.648268	161.000000	
40.667989	175.000000	
40.687711	157.000000	
40.707432	168.000000	
40.727153	148.000000	
40.746875	140.000000	
40.766596	140.000000	
40.786317	138.000000	
40.806039	148.000000	
40.825760	150.000000	
40.845482	135.000000	
40.865203	148.000000	
40.884924	155.000000	
40.904646	160.000000	
40.924367	153.000000	
40.944088	158.000000	
40.963810	167.000000	
40.983531	163.000000	
41.003252	202.000000	
41.022974	177.000000	
41.042695	169.000000	
41.062417	164.000000	
41.082138	171.000000	
41.101859	150.000000	
41.121581	203.000000	
41.141302	202.000000	
41.161023	210.000000	
41.180745	180.000000	
41.200466	226.000000	
41.220187	186.000000	
41.239909	201.000000	
41.259630	192.000000	
41.279352	181.000000	
41.299073	187.000000	
41.318794	201.000000	
41.338516	226.000000	
41.358237	207.000000	
41.377958	192.000000	
41.397680	207.000000	
41.417401	194.000000	
41.437122	178.000000	
41.456844	177.000000	
41.476565	180.000000	
41.496287	159.000000	
41.516008	159.000000	
41.535729	195.000000	
41.555451	166.000000	
41.575172	144.000000	
41.594893	156.000000	
41.614615	161.000000	
41.634336	155.000000	
41.654057	164.000000	
41.673779	161.000000	
41.693500	175.000000	
41.713222	175.000000	
41.732943	164.000000	
41.752664	163.000000	
41.772386	171.000000	
41.792107	161.000000	
41.811828	152.000000	
41.831550	182.000000	
41.851271	156.000000	
41.870992	163.000000	
41.890714	164.000000	
41.910435	152.000000	
41.930157	168.000000	
41.949878	156.000000	
41.969599	149.000000	
41.989321	149.000000	
42.009042	154.000000	
42.028763	176.000000	
42.048485	152.000000	
42.068206	158.000000	
42.087928	166.000000	
42.107649	141.000000	
42.127370	162.000000	
42.147092	141.000000	
42.166813	157.000000	
42.186534	158.000000	
42.206256	156.000000	
42.225977	138.000000	
42.245698	161.000000	
42.265420	165.000000	
42.285141	153.000000	
42.304863	153.000000	
42.324584	178.000000	
42.344305	163.000000	
42.364027	180.000000	
42.383748	180.000000	
42.403469	166.000000	
42.423191	163.000000	
42.442912	183.000000	
42.462633	156.000000	
42.482355	199.000000	
42.502076	176.000000	
42.521798	180.000000	
42.541519	191.000000	
42.561240	160.000000	
42.580962	192.000000	
42.600683	176.000000	
42.620404	178.000000	
42.640126	184.000000	
42.659847	188.000000	
42.679568	181.000000	
42.699290	204.000000	
42.719011	168.000000	
42.738733	184.000000	
42.758454	215.000000	
42.778175	191.000000	
42.797897	179.000000	
42.817618	199.000000	
42.837339	205.000000	
42.857061	196.000000	
42.876782	188.000000	
42.896503	184.000000	
42.916225	182.000000	
42.935946	167.000000	
42.955668	192.000000	
42.975389	188.000000	
42.995110	168.000000	
43.014832	185.000000	
43.034553	182.000000	
43.054274	169.000000	
43.073996	182.000000	
43.093717	187.000000	
43.113438	206.000000	
43.133160	198.000000	
43.152881	190.000000	
43.172603	189.000000	
43.192324	180.000000	
43.212045	172.000000	
43.231767	195.000000	
43.251488	183.000000	
43.271209	217.000000	
43.290931	173.000000	
43.310652	223.000000	
43.330373	203.000000	
43.350095	188.000000	
43.369816	215.000000	
43.389538	221.000000	
43.409259	219.000000	
43.428980	227.000000	
43.448702	282.000000	
43.468423	258.000000	
43.488144	310.000000	
43.507866	333.000000	
43.527587	399.000000	
43.547308	426.000000	
43.567030	521.000000	
43.586751	644.000000	
43.606473	708.000000	
43.626194	978.000000	
43.645915	1334.000000	
43.665637	1779.000000	
43.685358	2457.000000	
43.705079	3243.000000	
43.724801	4117.000000	
43.744522	4992.000000	
43.764243	5687.000000	
43.783965	5428.000000	
43.803686	4516.000000	
43.823408	3538.000000	
43.843129	3229.000000	
43.862850	3163.000000	
43.882572	3150.000000	
43.902293	2707.000000	
43.922014	1999.000000	
43.941736	1316.000000	
43.961457	843.000000	
43.981178	689.000000	
44.000900	531.000000	
44.020621	434.000000	
44.040343	350.000000	
44.060064	325.000000	
44.079785	317.000000	
44.099507	276.000000	
44.119228	267.000000	
44.138949	232.000000	
44.158671	220.000000	
44.178392	243.000000	
44.198113	220.000000	
44.217835	241.000000	
44.237556	222.000000	
44.257278	198.000000	
44.276999	233.000000	
44.296720	219.000000	
44.316442	248.000000	
44.336163	249.000000	
44.355884	221.000000	
44.375606	221.000000	
44.395327	209.000000	
44.415048	238.000000	
44.434770	206.000000	
44.454491	217.000000	
44.474213	193.000000	
44.493934	193.000000	
44.513655	164.000000	
44.533377	197.000000	
44.553098	185.000000	
44.572819	166.000000	
44.592541	174.000000	
44.612262	173.000000	
44.631983	171.000000	
44.651705	181.000000	
44.671426	174.000000	
44.691148	138.000000	
44.710869	168.000000	
44.730590	178.000000	
44.750312	171.000000	
44.770033	169.000000	
44.789754	161.000000	
44.809476	157.000000	
44.829197	163.000000	
44.848918	163.000000	
44.868640	167.000000	
44.888361	164.000000	
44.908083	154.000000	
44.927804	137.000000	
44.947525	145.000000	
44.967247	131.000000	
44.986968	157.000000	
45.006689	197.000000	
45.026411	164.000000	
45.046132	162.000000	
45.065853	160.000000	
45.085575	163.000000	
45.105296	153.000000	
45.125018	143.000000	
45.144739	183.000000	
45.164460	166.000000	
45.184182	145.000000	
45.203903	153.000000	
45.223624	151.000000	
45.243346	170.000000	
45.263067	136.000000	
45.282788	153.000000	
45.302510	161.000000	
45.322231	169.000000	
45.341953	160.000000	
45.361674	159.000000	
45.381395	146.000000	
45.401117	171.000000	
45.420838	156.000000	
45.440559	145.000000	
45.460281	188.000000	
45.480002	167.000000	
45.499723	134.000000	
45.519445	138.000000	
45.539166	174.000000	
45.558888	154.000000	
45.578609	153.000000	
45.598330	143.000000	
45.618052	155.000000	
45.637773	155.000000	
45.657494	137.000000	
45.677216	157.000000	
45.696937	152.000000	
45.716658	168.000000	
45.736380	150.000000	
45.756101	142.000000	
45.775823	168.000000	
45.795544	156.000000	
45.815265	140.000000	
45.834987	162.000000	
45.854708	132.000000	
45.874429	165.000000	
45.894151	142.000000	
45.913872	159.000000	
45.933593	160.000000	
45.953315	154.000000	
45.973036	153.000000	
45.992758	126.000000	
46.012479	132.000000	
46.032200	146.000000	
46.051922	125.000000	
46.071643	153.000000	
46.091364	148.000000	
46.111086	154.000000	
46.130807	145.000000	
46.150528	170.000000	
46.170250	162.000000	
46.189971	143.000000	
46.209693	146.000000	
46.229414	148.000000	
46.249135	155.000000	
46.268857	137.000000	
46.288578	159.000000	
46.308299	119.000000	
46.328021	144.000000	
46.347742	156.000000	
46.367463	145.000000	
46.387185	130.000000	
46.406906	142.000000	
46.426628	141.000000	
46.446349	170.000000	
46.466070	144.000000	
46.485792	160.000000	
46.505513	124.000000	
46.525234	153.000000	
46.544956	165.000000	
46.564677	148.000000	
46.584398	147.000000	
46.604120	134.000000	
46.623841	134.000000	
46.643563	148.000000	
46.663284	150.000000	
46.683005	154.000000	
46.702727	146.000000	
46.722448	139.000000	
46.742169	163.000000	
46.761891	144.000000	
46.781612	138.000000	
46.801333	151.000000	
46.821055	162.000000	
46.840776	157.000000	
46.860498	173.000000	
46.880219	141.000000	
46.899940	140.000000	
46.919662	158.000000	
46.939383	160.000000	
46.959104	140.000000	
46.978826	169.000000	
46.998547	148.000000	
47.018268	138.000000	
47.037990	146.000000	
47.057711	145.000000	
47.077433	138.000000	
47.097154	150.000000	
47.116875	142.000000	
47.136597	138.000000	
47.156318	133.000000	
47.176039	151.000000	
47.195761	148.000000	
47.215482	153.000000	
47.235203	147.000000	
47.254925	146.000000	
47.274646	136.000000	
47.294368	137.000000	
47.314089	159.000000	
47.333810	146.000000	
47.353532	134.000000	
47.373253	135.000000	
47.392974	155.000000	
47.412696	138.000000	
47.432417	160.000000	
47.452138	147.000000	
47.471860	143.000000	
47.491581	149.000000	
47.511303	151.000000	
47.531024	167.000000	
47.550745	118.000000	
47.570467	136.000000	
47.590188	144.000000	
47.609909	119.000000	
47.629631	146.000000	
47.649352	167.000000	
47.669073	133.000000	
47.688795	163.000000	
47.708516	151.000000	
47.728238	129.000000	
47.747959	158.000000	
47.767680	137.000000	
47.787402	155.000000	
47.807123	131.000000	
47.826844	167.000000	
47.846566	160.000000	
47.866287	143.000000	
47.886008	141.000000	
47.905730	141.000000	
47.925451	155.000000	
47.945173	159.000000	
47.964894	156.000000	
47.984615	133.000000	
48.004337	137.000000	
48.024058	127.000000	
48.043779	137.000000	
48.063501	129.000000	
48.083222	149.000000	
48.102943	164.000000	
48.122665	136.000000	
48.142386	150.000000	
48.162108	138.000000	
48.181829	152.000000	
48.201550	161.000000	
48.221272	168.000000	
48.240993	149.000000	
48.260714	122.000000	
48.280436	143.000000	
48.300157	162.000000	
48.319878	149.000000	
48.339600	145.000000	
48.359321	136.000000	
48.379043	135.000000	
48.398764	144.000000	
48.418485	127.000000	
48.438207	165.000000	
48.457928	164.000000	
48.477649	166.000000	
48.497371	139.000000	
48.517092	145.000000	
48.536813	139.000000	
48.556535	162.000000	
48.576256	152.000000	
48.595978	184.000000	
48.615699	144.000000	
48.635420	141.000000	
48.655142	144.000000	
48.674863	139.000000	
48.694584	137.000000	
48.714306	145.000000	
48.734027	139.000000	
48.753748	143.000000	
48.773470	145.000000	
48.793191	131.000000	
48.812913	156.000000	
48.832634	141.000000	
48.852355	147.000000	
48.872077	134.000000	
48.891798	138.000000	
48.911519	155.000000	
48.931241	150.000000	
48.950962	173.000000	
48.970683	149.000000	
48.990405	153.000000	
49.010126	154.000000	
49.029848	150.000000	
49.049569	143.000000	
49.069290	138.000000	
49.089012	143.000000	
49.108733	129.000000	
49.128454	140.000000	
49.148176	158.000000	
49.167897	147.000000	
49.187618	147.000000	
49.207340	142.000000	
49.227061	142.000000	
49.246783	173.000000	
49.266504	133.000000	
49.286225	155.000000	
49.305947	159.000000	
49.325668	181.000000	
49.345389	144.000000	
49.365111	144.000000	
49.384832	162.000000	
49.404553	168.000000	
49.424275	152.000000	
49.443996	146.000000	
49.463718	143.000000	
49.483439	153.000000	
49.503160	147.000000	
49.522882	128.000000	
49.542603	160.000000	
49.562324	153.000000	
49.582046	161.000000	
49.601767	163.000000	
49.621488	142.000000	
49.641210	159.000000	
49.660931	146.000000	
49.680653	163.000000	
49.700374	171.000000	
49.720095	189.000000	
49.739817	158.000000	
49.759538	142.000000	
49.779259	210.000000	
49.798981	143.000000	
49.818702	151.000000	
49.838423	161.000000	
49.858145	191.000000	
49.877866	190.000000	
49.897588	181.000000	
49.917309	171.000000	
49.937030	196.000000	
49.956752	194.000000	
49.976473	204.000000	
49.996194	165.000000	
50.015916	181.000000	
50.035637	190.000000	
50.055358	166.000000	
50.075080	172.000000	
50.094801	146.000000	
50.114523	173.000000	
50.134244	186.000000	
50.153965	201.000000	
50.173687	190.000000	
50.193408	178.000000	
50.213129	158.000000	
50.232851	186.000000	
50.252572	192.000000	
50.272293	203.000000	
50.292015	189.000000	
50.311736	178.000000	
50.331458	153.000000	
50.351179	152.000000	
50.370900	186.000000	
50.390622	160.000000	
50.410343	166.000000	
50.430064	162.000000	
50.449786	172.000000	
50.469507	177.000000	
50.489228	204.000000	
50.508950	205.000000	
50.528671	194.000000	
50.548393	209.000000	
50.568114	194.000000	
50.587835	197.000000	
50.607557	244.000000	
50.627278	242.000000	
50.646999	256.000000	
50.666721	275.000000	
50.686442	275.000000	
50.706163	346.000000	
50.725885	373.000000	
50.745606	429.000000	
50.765328	487.000000	
50.785049	587.000000	
50.804770	642.000000	
50.824492	788.000000	
50.844213	1008.000000	
50.863934	1127.000000	
50.883656	1353.000000	
50.903377	1516.000000	
50.923099	1629.000000	
50.942820	1955.000000	
50.962541	2024.000000	
50.982263	1990.000000	
51.001984	1860.000000	
51.021705	1631.000000	
51.041427	1481.000000	
51.061148	1425.000000	
51.080869	1279.000000	
51.100591	1184.000000	
51.120312	1109.000000	
51.140034	909.000000	
51.159755	798.000000	
51.179476	608.000000	
51.199198	532.000000	
51.218919	448.000000	
51.238640	397.000000	
51.258362	340.000000	
51.278083	296.000000	
51.297804	271.000000	
51.317526	223.000000	
51.337247	240.000000	
51.356969	189.000000	
51.376690	236.000000	
51.396411	187.000000	
51.416133	198.000000	
51.435854	173.000000	
51.455575	161.000000	
51.475297	183.000000	
51.495018	158.000000	
51.514739	156.000000	
51.534461	184.000000	
51.554182	175.000000	
51.573904	166.000000	
51.593625	178.000000	
51.613346	165.000000	
51.633068	139.000000	
51.652789	183.000000	
51.672510	183.000000	
51.692232	162.000000	
51.711953	163.000000	
51.731674	141.000000	
51.751396	141.000000	
51.771117	174.000000	
51.790839	160.000000	
51.810560	178.000000	
51.830281	150.000000	
51.850003	143.000000	
51.869724	151.000000	
51.889445	133.000000	
51.909167	163.000000	
51.928888	142.000000	
51.948609	162.000000	
51.968331	147.000000	
51.988052	142.000000	
52.007774	139.000000	
52.027495	138.000000	
52.047216	164.000000	
52.066938	161.000000	
52.086659	143.000000	
52.106380	116.000000	
52.126102	145.000000	
52.145823	147.000000	
52.165544	162.000000	
52.185266	156.000000	
52.204987	132.000000	
52.224709	124.000000	
52.244430	137.000000	
52.264151	154.000000	
52.283873	135.000000	
52.303594	141.000000	
52.323315	153.000000	
52.343037	130.000000	
52.362758	138.000000	
52.382479	151.000000	
52.402201	159.000000	
52.421922	155.000000	
52.441644	129.000000	
52.461365	149.000000	
52.481086	151.000000	
52.500808	158.000000	
52.520529	144.000000	
52.540250	152.000000	
52.559972	133.000000	
52.579693	159.000000	
52.599414	150.000000	
52.619136	119.000000	
52.638857	124.000000	
52.658579	161.000000	
52.678300	145.000000	
52.698021	142.000000	
52.717743	138.000000	
52.737464	136.000000	
52.757185	147.000000	
52.776907	145.000000	
52.796628	137.000000	
52.816349	135.000000	
52.836071	138.000000	
52.855792	164.000000	
52.875514	143.000000	
52.895235	143.000000	
52.914956	167.000000	
52.934678	146.000000	
52.954399	142.000000	
52.974120	166.000000	
52.993842	152.000000	
53.013563	161.000000	
53.033284	159.000000	
53.053006	141.000000	
53.072727	141.000000	
53.092449	146.000000	
53.112170	159.000000	
53.131891	125.000000	
53.151613	153.000000	
53.171334	134.000000	
53.191055	147.000000	
53.210777	130.000000	
53.230498	158.000000	
53.250219	165.000000	
53.269941	134.000000	
53.289662	140.000000	
53.309384	142.000000	
53.329105	149.000000	
53.348826	154.000000	
53.368548	149.000000	
53.388269	147.000000	
53.407990	180.000000	
53.427712	143.000000	
53.447433	147.000000	
53.467154	123.000000	
53.486876	132.000000	
53.506597	138.000000	
53.526319	129.000000	
53.546040	171.000000	
53.565761	146.000000	
53.585483	140.000000	
53.605204	140.000000	
53.624925	145.000000	
53.644647	135.000000	
53.664368	140.000000	
53.684089	142.000000	
53.703811	143.000000	
53.723532	142.000000	
53.743254	124.000000	
53.762975	108.000000	
53.782696	152.000000	
53.802418	159.000000	
53.822139	142.000000	
53.841860	123.000000	
53.861582	144.000000	
53.881303	127.000000	
53.901024	149.000000	
53.920746	128.000000	
53.940467	149.000000	
53.960189	135.000000	
53.979910	148.000000	
53.999631	125.000000	
54.019353	131.000000	
54.039074	159.000000	
54.058795	153.000000	
54.078517	143.000000	
54.098238	162.000000	
54.117959	147.000000	
54.137681	154.000000	
54.157402	136.000000	
54.177124	154.000000	
54.196845	145.000000	
54.216566	147.000000	
54.236288	155.000000	
54.256009	138.000000	
54.275730	149.000000	
54.295452	170.000000	
54.315173	158.000000	
54.334894	180.000000	
54.354616	147.000000	
54.374337	165.000000	
54.394059	166.000000	
54.413780	176.000000	
54.433501	195.000000	
54.453223	194.000000	
54.472944	218.000000	
54.492665	210.000000	
54.512387	192.000000	
54.532108	177.000000	
54.551829	221.000000	
54.571551	211.000000	
54.591272	194.000000	
54.610994	227.000000	
54.630715	213.000000	
54.650436	200.000000	
54.670158	234.000000	
54.689879	187.000000	
54.709600	178.000000	
54.729322	204.000000	
54.749043	198.000000	
54.768764	176.000000	
54.788486	173.000000	
54.808207	168.000000	
54.827929	189.000000	
54.847650	179.000000	
54.867371	173.000000	
54.887093	172.000000	
54.906814	179.000000	
54.926535	141.000000	
54.946257	164.000000	
54.965978	189.000000	
54.985699	154.000000	
55.005421	135.000000	
55.025142	163.000000	
55.044864	139.000000	
55.064585	121.000000	
55.084306	148.000000	
55.104028	167.000000	
55.123749	136.000000	
55.143470	144.000000	
55.163192	139.000000	
55.182913	158.000000	
55.202634	143.000000	
55.222356	141.000000	
55.242077	159.000000	
55.261799	165.000000	
55.281520	137.000000	
55.301241	123.000000	
55.320963	139.000000	
55.340684	143.000000	
55.360405	161.000000	
55.380127	150.000000	
55.399848	142.000000	
55.419569	142.000000	
55.439291	142.000000	
55.459012	143.000000	
55.478734	135.000000	
55.498455	130.000000	
55.518176	109.000000	
55.537898	139.000000	
55.557619	148.000000	
55.577340	140.000000	
55.597062	130.000000	
55.616783	143.000000	
55.636504	136.000000	
55.656226	126.000000	
55.675947	134.000000	
55.695669	133.000000	
55.715390	137.000000	
55.735111	136.000000	
55.754833	113.000000	
55.774554	135.000000	
55.794275	137.000000	
55.813997	123.000000	
55.833718	123.000000	
55.853439	121.000000	
55.873161	135.000000	
55.892882	140.000000	
55.912604	135.000000	
55.932325	124.000000	
55.952046	148.000000	
55.971768	140.000000	
55.991489	130.000000	
56.011210	115.000000	
56.030932	140.000000	
56.050653	152.000000	
56.070374	149.000000	
56.090096	142.000000	
56.109817	140.000000	
56.129539	164.000000	
56.149260	131.000000	
56.168981	140.000000	
56.188703	128.000000	
56.208424	144.000000	
56.228145	168.000000	
56.247867	170.000000	
56.267588	150.000000	
56.287309	145.000000	
56.307031	161.000000	
56.326752	159.000000	
56.346474	166.000000	
56.366195	144.000000	
56.385916	144.000000	
56.405638	155.000000	
56.425359	157.000000	
56.445080	158.000000	
56.464802	131.000000	
56.484523	163.000000	
56.504244	145.000000	
56.523966	155.000000	
56.543687	156.000000	
56.563409	155.000000	
56.583130	174.000000	
56.602851	161.000000	
56.622573	181.000000	
56.642294	152.000000	
56.662015	167.000000	
56.681737	151.000000	
56.701458	152.000000	
56.721179	139.000000	
56.740901	151.000000	
56.760622	163.000000	
56.780344	154.000000	
56.800065	129.000000	
56.819786	156.000000	
56.839508	154.000000	
56.859229	149.000000	
56.878950	142.000000	
56.898672	159.000000	
56.918393	146.000000	
56.938114	143.000000	
56.957836	147.000000	
56.977557	138.000000	
56.997279	163.000000	
57.017000	133.000000	
57.036721	149.000000	
57.056443	144.000000	
57.076164	150.000000	
57.095885	132.000000	
57.115607	138.000000	
57.135328	133.000000	
57.155049	127.000000	
57.174771	134.000000	
57.194492	144.000000	
57.214214	139.000000	
57.233935	138.000000	
57.253656	150.000000	
57.273378	126.000000	
57.293099	116.000000	
57.312820	134.000000	
57.332542	146.000000	
57.352263	137.000000	
57.371984	122.000000	
57.391706	133.000000	
57.411427	155.000000	
57.431149	151.000000	
57.450870	144.000000	
57.470591	144.000000	
57.490313	143.000000	
57.510034	143.000000	
57.529755	147.000000	
57.549477	154.000000	
57.569198	158.000000	
57.588919	144.000000	
57.608641	144.000000	
57.628362	134.000000	
57.648084	143.000000	
57.667805	136.000000	
57.687526	142.000000	
57.707248	127.000000	
57.726969	150.000000	
57.746690	147.000000	
57.766412	142.000000	
57.786133	139.000000	
57.805854	123.000000	
57.825576	138.000000	
57.845297	143.000000	
57.865019	159.000000	
57.884740	130.000000	
57.904461	159.000000	
57.924183	137.000000	
57.943904	136.000000	
57.963625	143.000000	
57.983347	123.000000	
58.003068	118.000000	
58.022789	163.000000	
58.042511	133.000000	
58.062232	118.000000	
58.081954	137.000000	
58.101675	130.000000	
58.121396	127.000000	
58.141118	127.000000	
58.160839	126.000000	
58.180560	144.000000	
58.200282	146.000000	
58.220003	112.000000	
58.239724	152.000000	
58.259446	147.000000	
58.279167	124.000000	
58.298889	134.000000	
58.318610	141.000000	
58.338331	134.000000	
58.358053	135.000000	
58.377774	134.000000	
58.397495	109.000000	
58.417217	145.000000	
58.436938	143.000000	
58.456659	128.000000	
58.476381	130.000000	
58.496102	121.000000	
58.515824	128.000000	
58.535545	153.000000	
58.555266	145.000000	
58.574988	111.000000	
58.594709	151.000000	
58.614430	157.000000	
58.634152	135.000000	
58.653873	121.000000	
58.673594	119.000000	
58.693316	138.000000	
58.713037	152.000000	
58.732759	131.000000	
58.752480	131.000000	
58.772201	125.000000	
58.791923	147.000000	
58.811644	126.000000	
58.831365	123.000000	
58.851087	123.000000	
58.870808	139.000000	
58.890529	130.000000	
58.910251	116.000000	
58.929972	154.000000	
58.949694	126.000000	
58.969415	121.000000	
58.989136	124.000000	
59.008858	155.000000	
59.028579	123.000000	
59.048300	157.000000	
59.068022	129.000000	
59.087743	154.000000	
59.107464	131.000000	
59.127186	123.000000	
59.146907	124.000000	
59.166629	125.000000	
59.186350	120.000000	
59.206071	130.000000	
59.225793	128.000000	
59.245514	148.000000	
59.265235	129.000000	
59.284957	139.000000	
59.304678	147.000000	
59.324399	128.000000	
59.344121	134.000000	
59.363842	114.000000	
59.383564	135.000000	
59.403285	145.000000	
59.423006	136.000000	
59.442728	146.000000	
59.462449	121.000000	
59.482170	130.000000	
59.501892	138.000000	
59.521613	133.000000	
59.541334	138.000000	
59.561056	145.000000	
59.580777	142.000000	
59.600499	115.000000	
59.620220	130.000000	
59.639941	136.000000	
59.659663	136.000000	
59.679384	139.000000	
59.699105	149.000000	
59.718827	131.000000	
59.738548	135.000000	
59.758270	131.000000	
59.777991	116.000000	
59.797712	155.000000	
59.817434	116.000000	
59.837155	137.000000	
59.856876	124.000000	
59.876598	141.000000	
59.896319	111.000000	
59.916040	138.000000	
59.935762	157.000000	
59.955483	136.000000	
59.975205	145.000000	
59.994926	172.000000	
60.014647	122.000000	
60.034369	129.000000	
60.054090	135.000000	
60.073811	142.000000	
60.093533	131.000000	
60.113254	138.000000	
60.132975	141.000000	
60.152697	168.000000	
60.172418	135.000000	
60.192140	120.000000	
60.211861	122.000000	
60.231582	153.000000	
60.251304	144.000000	
60.271025	114.000000	
60.290746	155.000000	
60.310468	138.000000	
60.330189	128.000000	
60.349910	125.000000	
60.369632	142.000000	
60.389353	135.000000	
60.409075	124.000000	
60.428796	136.000000	
60.448517	125.000000	
60.468239	136.000000	
60.487960	135.000000	
60.507681	118.000000	
60.527403	152.000000	
60.547124	143.000000	
60.566845	119.000000	
60.586567	136.000000	
60.606288	146.000000	
60.626010	132.000000	
60.645731	136.000000	
60.665452	123.000000	
60.685174	143.000000	
60.704895	125.000000	
60.724616	105.000000	
60.744338	135.000000	
60.764059	119.000000	
60.783780	145.000000	
60.803502	130.000000	
60.823223	150.000000	
60.842945	125.000000	
60.862666	143.000000	
60.882387	133.000000	
60.902109	133.000000	
60.921830	153.000000	
60.941551	142.000000	
60.961273	120.000000	
60.980994	139.000000	
61.000715	128.000000	
61.020437	113.000000	
61.040158	136.000000	
61.059880	134.000000	
61.079601	114.000000	
61.099322	148.000000	
61.119044	130.000000	
61.138765	140.000000	
61.158486	131.000000	
61.178208	123.000000	
61.197929	132.000000	
61.217650	126.000000	
61.237372	138.000000	
61.257093	119.000000	
61.276815	134.000000	
61.296536	141.000000	
61.316257	128.000000	
61.335979	118.000000	
61.355700	143.000000	
61.375421	155.000000	
61.395143	152.000000	
61.414864	134.000000	
61.434585	157.000000	
61.454307	155.000000	
61.474028	118.000000	
61.493750	147.000000	
61.513471	141.000000	
61.533192	121.000000	
61.552914	141.000000	
61.572635	120.000000	
61.592356	128.000000	
61.612078	124.000000	
61.631799	165.000000	
61.651520	149.000000	
61.671242	137.000000	
61.690963	143.000000	
61.710685	124.000000	
61.730406	129.000000	
61.750127	131.000000	
61.769849	146.000000	
61.789570	156.000000	
61.809291	167.000000	
61.829013	146.000000	
61.848734	138.000000	
61.868455	162.000000	
61.888177	148.000000	
61.907898	146.000000	
61.927620	171.000000	
61.947341	147.000000	
61.967062	145.000000	
61.986784	132.000000	
62.006505	136.000000	
62.026226	148.000000	
62.045948	159.000000	
62.065669	143.000000	
62.085390	166.000000	
62.105112	175.000000	
62.124833	160.000000	
62.144555	148.000000	
62.164276	135.000000	
62.183997	157.000000	
62.203719	161.000000	
62.223440	148.000000	
62.243161	164.000000	
62.262883	154.000000	
62.282604	164.000000	
62.302325	141.000000	
62.322047	156.000000	
62.341768	160.000000	
62.361490	126.000000	
62.381211	156.000000	
62.400932	156.000000	
62.420654	143.000000	
62.440375	153.000000	
62.460096	148.000000	
62.479818	137.000000	
62.499539	145.000000	
62.519260	143.000000	
62.538982	151.000000	
62.558703	157.000000	
62.578425	127.000000	
62.598146	145.000000	
62.617867	161.000000	
62.637589	137.000000	
62.657310	156.000000	
62.677031	157.000000	
62.696753	142.000000	
62.716474	154.000000	
62.736195	155.000000	
62.755917	153.000000	
62.775638	175.000000	
62.795360	169.000000	
62.815081	148.000000	
62.834802	162.000000	
62.854524	167.000000	
62.874245	176.000000	
62.893966	141.000000	
62.913688	163.000000	
62.933409	157.000000	
62.953130	170.000000	
62.972852	158.000000	
62.992573	182.000000	
63.012295	150.000000	
63.032016	151.000000	
63.051737	152.000000	
63.071459	135.000000	
63.091180	148.000000	
63.110901	152.000000	
63.130623	166.000000	
63.150344	185.000000	
63.170065	144.000000	
63.189787	156.000000	
63.209508	153.000000	
63.229230	151.000000	
63.248951	177.000000	
63.268672	180.000000	
63.288394	133.000000	
63.308115	164.000000	
63.327836	151.000000	
63.347558	171.000000	
63.367279	143.000000	
63.387000	163.000000	
63.406722	161.000000	
63.426443	163.000000	
63.446165	151.000000	
63.465886	152.000000	
63.485607	153.000000	
63.505329	132.000000	
63.525050	143.000000	
63.544771	148.000000	
63.564493	131.000000	
63.584214	142.000000	
63.603935	140.000000	
63.623657	118.000000	
63.643378	149.000000	
63.663100	124.000000	
63.682821	146.000000	
63.702542	146.000000	
63.722264	133.000000	
63.741985	134.000000	
63.761706	129.000000	
63.781428	133.000000	
63.801149	144.000000	
63.820870	154.000000	
63.840592	148.000000	
63.860313	148.000000	
63.880035	132.000000	
63.899756	130.000000	
63.919477	143.000000	
63.939199	143.000000	
63.958920	171.000000	
63.978641	139.000000	
63.998363	133.000000	
64.018084	143.000000	
64.037805	129.000000	
64.057527	131.000000	
64.077248	135.000000	
64.096970	144.000000	
64.116691	150.000000	
64.136412	159.000000	
64.156134	126.000000	
64.175855	145.000000	
64.195576	134.000000	
64.215298	144.000000	
64.235019	143.000000	
64.254740	132.000000	
64.274462	160.000000	
64.294183	149.000000	
64.313905	143.000000	
64.333626	134.000000	
64.353347	145.000000	
64.373069	165.000000	
64.392790	150.000000	
64.412511	155.000000	
64.432233	146.000000	
64.451954	141.000000	
64.471675	149.000000	
64.491397	167.000000	
64.511118	137.000000	
64.530840	164.000000	
64.550561	154.000000	
64.570282	137.000000	
64.590004	155.000000	
64.609725	152.000000	
64.629446	150.000000	
64.649168	153.000000	
64.668889	163.000000	
64.688610	145.000000	
64.708332	146.000000	
64.728053	147.000000	
64.747775	144.000000	
64.767496	162.000000	
64.787217	164.000000	
64.806939	157.000000	
64.826660	146.000000	
64.846381	148.000000	
64.866103	160.000000	
64.885824	155.000000	
64.905545	147.000000	
64.925267	149.000000	
64.944988	149.000000	
64.964710	164.000000	
64.984431	142.000000	
65.004152	149.000000	
65.023874	155.000000	
65.043595	145.000000	
65.063316	139.000000	
65.083038	145.000000	
65.102759	161.000000	
65.122480	152.000000	
65.142202	164.000000	
65.161923	138.000000	
65.181645	162.000000	
65.201366	149.000000	
65.221087	165.000000	
65.240809	159.000000	
65.260530	132.000000	
65.280251	170.000000	
65.299973	129.000000	
65.319694	136.000000	
65.339415	171.000000	
65.359137	147.000000	
65.378858	149.000000	
65.398580	140.000000	
65.418301	134.000000	
65.438022	150.000000	
65.457744	135.000000	
65.477465	142.000000	
65.497186	155.000000	
65.516908	138.000000	
65.536629	155.000000	
65.556350	144.000000	
65.576072	145.000000	
65.595793	133.000000	
65.615515	141.000000	
65.635236	135.000000	
65.654957	152.000000	
65.674679	133.000000	
65.694400	146.000000	
65.714121	132.000000	
65.733843	162.000000	
65.753564	147.000000	
65.773285	135.000000	
65.793007	144.000000	
65.812728	158.000000	
65.832450	145.000000	
65.852171	171.000000	
65.871892	134.000000	
65.891614	148.000000	
65.911335	139.000000	
65.931056	134.000000	
65.950778	120.000000	
65.970499	152.000000	
65.990220	134.000000	
66.009942	166.000000	
66.029663	142.000000	
66.049385	142.000000	
66.069106	165.000000	
66.088827	147.000000	
66.108549	154.000000	
66.128270	133.000000	
66.147991	155.000000	
66.167713	134.000000	
66.187434	141.000000	
66.207155	138.000000	
66.226877	150.000000	
66.246598	136.000000	
66.266320	148.000000	
66.286041	167.000000	
66.305762	138.000000	
66.325484	136.000000	
66.345205	138.000000	
66.364926	137.000000	
66.384648	131.000000	
66.404369	157.000000	
66.424090	144.000000	
66.443812	138.000000	
66.463533	142.000000	
66.483255	137.000000	
66.502976	140.000000	
66.522697	126.000000	
66.542419	163.000000	
66.562140	136.000000	
66.581861	148.000000	
66.601583	159.000000	
66.621304	169.000000	
66.641025	141.000000	
66.660747	152.000000	
66.680468	151.000000	
66.700190	136.000000	
66.719911	144.000000	
66.739632	147.000000	
66.759354	139.000000	
66.779075	143.000000	
66.798796	148.000000	
66.818518	158.000000	
66.838239	153.000000	
66.857960	134.000000	
66.877682	145.000000	
66.897403	175.000000	
66.917125	151.000000	
66.936846	149.000000	
66.956567	141.000000	
66.976289	151.000000	
66.996010	150.000000	
67.015731	136.000000	
67.035453	169.000000	
67.055174	150.000000	
67.074895	147.000000	
67.094617	133.000000	
67.114338	163.000000	
67.134060	139.000000	
67.153781	140.000000	
67.173502	148.000000	
67.193224	136.000000	
67.212945	132.000000	
67.232666	118.000000	
67.252388	150.000000	
67.272109	128.000000	
67.291830	160.000000	
67.311552	157.000000	
67.331273	141.000000	
67.350995	130.000000	
67.370716	140.000000	
67.390437	154.000000	
67.410159	126.000000	
67.429880	142.000000	
67.449601	164.000000	
67.469323	140.000000	
67.489044	158.000000	
67.508765	155.000000	
67.528487	137.000000	
67.548208	158.000000	
67.567930	145.000000	
67.587651	158.000000	
67.607372	161.000000	
67.627094	141.000000	
67.646815	131.000000	
67.666536	155.000000	
67.686258	142.000000	
67.705979	155.000000	
67.725700	144.000000	
67.745422	157.000000	
67.765143	147.000000	
67.784865	142.000000	
67.804586	146.000000	
67.824307	143.000000	
67.844029	135.000000	
67.863750	154.000000	
67.883471	165.000000	
67.903193	134.000000	
67.922914	164.000000	
67.942635	152.000000	
67.962357	170.000000	
67.982078	135.000000	
68.001800	149.000000	
68.021521	149.000000	
68.041242	137.000000	
68.060964	136.000000	
68.080685	140.000000	
68.100406	152.000000	
68.120128	171.000000	
68.139849	153.000000	
68.159570	143.000000	
68.179292	135.000000	
68.199013	128.000000	
68.218735	153.000000	
68.238456	137.000000	
68.258177	143.000000	
68.277899	150.000000	
68.297620	187.000000	
68.317341	172.000000	
68.337063	129.000000	
68.356784	138.000000	
68.376505	144.000000	
68.396227	159.000000	
68.415948	139.000000	
68.435670	146.000000	
68.455391	178.000000	
68.475112	133.000000	
68.494834	134.000000	
68.514555	148.000000	
68.534276	142.000000	
68.553998	153.000000	
68.573719	156.000000	
68.593441	146.000000	
68.613162	128.000000	
68.632883	153.000000	
68.652605	134.000000	
68.672326	152.000000	
68.692047	142.000000	
68.711769	146.000000	
68.731490	137.000000	
68.751211	139.000000	
68.770933	148.000000	
68.790654	152.000000	
68.810376	137.000000	
68.830097	182.000000	
68.849818	148.000000	
68.869540	153.000000	
68.889261	186.000000	
68.908982	145.000000	
68.928704	149.000000	
68.948425	141.000000	
68.968146	145.000000	
68.987868	160.000000	
69.007589	155.000000	
69.027311	137.000000	
69.047032	154.000000	
69.066753	135.000000	
69.086475	133.000000	
69.106196	135.000000	
69.125917	147.000000	
69.145639	145.000000	
69.165360	138.000000	
69.185081	129.000000	
69.204803	134.000000	
69.224524	163.000000	
69.244246	141.000000	
69.263967	137.000000	
69.283688	145.000000	
69.303410	136.000000	
69.323131	127.000000	
69.342852	155.000000	
69.362574	141.000000	
69.382295	133.000000	
69.402016	142.000000	
69.421738	136.000000	
69.441459	168.000000	
69.461181	146.000000	
69.480902	149.000000	
69.500623	132.000000	
69.520345	143.000000	
69.540066	156.000000	
69.559787	164.000000	
69.579509	152.000000	
69.599230	154.000000	
69.618951	135.000000	
69.638673	124.000000	
69.658394	120.000000	
69.678116	164.000000	
69.697837	147.000000	
69.717558	121.000000	
69.737280	125.000000	
69.757001	148.000000	
69.776722	148.000000	
69.796444	148.000000	
69.816165	167.000000	
69.835886	156.000000	
69.855608	158.000000	
69.875329	171.000000	
69.895051	149.000000	
69.914772	144.000000	
69.934493	150.000000	
69.954215	163.000000	
69.973936	155.000000	
69.993657	158.000000	
70.013379	146.000000	
70.033100	175.000000	
70.052821	151.000000	
70.072543	136.000000	
70.092264	132.000000	
70.111986	162.000000	
70.131707	133.000000	
70.151428	135.000000	
70.171150	137.000000	
70.190871	159.000000	
70.210592	132.000000	
70.230314	163.000000	
70.250035	147.000000	
70.269756	130.000000	
70.289478	128.000000	
70.309199	152.000000	
70.328921	153.000000	
70.348642	166.000000	
70.368363	150.000000	
70.388085	147.000000	
70.407806	147.000000	
70.427527	151.000000	
70.447249	140.000000	
70.466970	136.000000	
70.486691	134.000000	
70.506413	143.000000	
70.526134	157.000000	
70.545856	154.000000	
70.565577	159.000000	
70.585298	143.000000	
70.605020	130.000000	
70.624741	144.000000	
70.644462	137.000000	
70.664184	161.000000	
70.683905	153.000000	
70.703626	153.000000	
70.723348	134.000000	
70.743069	155.000000	
70.762791	145.000000	
70.782512	150.000000	
70.802233	145.000000	
70.821955	176.000000	
70.841676	160.000000	
70.861397	141.000000	
70.881119	144.000000	
70.900840	149.000000	
70.920561	142.000000	
70.940283	140.000000	
70.960004	167.000000	
70.979726	168.000000	
70.999447	161.000000	
71.019168	133.000000	
71.038890	161.000000	
71.058611	145.000000	
71.078332	126.000000	
71.098054	154.000000	
71.117775	162.000000	
71.137496	167.000000	
71.157218	147.000000	
71.176939	137.000000	
71.196661	119.000000	
71.216382	164.000000	
71.236103	151.000000	
71.255825	155.000000	
71.275546	129.000000	
71.295267	132.000000	
71.314989	149.000000	
71.334710	149.000000	
71.354431	150.000000	
71.374153	136.000000	
71.393874	191.000000	
71.413596	132.000000	
71.433317	169.000000	
71.453038	137.000000	
71.472760	166.000000	
71.492481	156.000000	
71.512202	146.000000	
71.531924	121.000000	
71.551645	151.000000	
71.571366	149.000000	
71.591088	134.000000	
71.610809	148.000000	
71.630531	166.000000	
71.650252	148.000000	
71.669973	169.000000	
71.689695	138.000000	
71.709416	125.000000	
71.729137	129.000000	
71.748859	150.000000	
71.768580	135.000000	
71.788301	143.000000	
71.808023	133.000000	
71.827744	147.000000	
71.847466	158.000000	
71.867187	170.000000	
71.886908	150.000000	
71.906630	153.000000	
71.926351	138.000000	
71.946072	139.000000	
71.965794	148.000000	
71.985515	159.000000	
72.005236	160.000000	
72.024958	193.000000	
72.044679	165.000000	
72.064401	156.000000	
72.084122	158.000000	
72.103843	150.000000	
72.123565	154.000000	
72.143286	152.000000	
72.163007	157.000000	
72.182729	147.000000	
72.202450	169.000000	
72.222171	141.000000	
72.241893	164.000000	
72.261614	163.000000	
72.281336	153.000000	
72.301057	134.000000	
72.320778	139.000000	
72.340500	165.000000	
72.360221	157.000000	
72.379942	168.000000	
72.399664	143.000000	
72.419385	155.000000	
72.439106	157.000000	
72.458828	163.000000	
72.478549	153.000000	
72.498271	151.000000	
72.517992	166.000000	
72.537713	168.000000	
72.557435	153.000000	
72.577156	156.000000	
72.596877	134.000000	
72.616599	146.000000	
72.636320	162.000000	
72.656041	164.000000	
72.675763	178.000000	
72.695484	145.000000	
72.715206	157.000000	
72.734927	169.000000	
72.754648	156.000000	
72.774370	164.000000	
72.794091	166.000000	
72.813812	148.000000	
72.833534	164.000000	
72.853255	150.000000	
72.872976	150.000000	
72.892698	155.000000	
72.912419	106.000000	
72.932141	149.000000	
72.951862	157.000000	
72.971583	161.000000	
72.991305	175.000000	
73.011026	165.000000	
73.030747	155.000000	
73.050469	159.000000	
73.070190	156.000000	
73.089911	143.000000	
73.109633	160.000000	
73.129354	172.000000	
73.149076	145.000000	
73.168797	155.000000	
73.188518	140.000000	
73.208240	156.000000	
73.227961	149.000000	
73.247682	163.000000	
73.267404	168.000000	
73.287125	182.000000	
73.306846	155.000000	
73.326568	149.000000	
73.346289	171.000000	
73.366011	145.000000	
73.385732	166.000000	
73.405453	161.000000	
73.425175	184.000000	
73.444896	149.000000	
73.464617	170.000000	
73.484339	140.000000	
73.504060	156.000000	
73.523781	156.000000	
73.543503	149.000000	
73.563224	164.000000	
73.582946	152.000000	
73.602667	164.000000	
73.622388	164.000000	
73.642110	148.000000	
73.661831	181.000000	
73.681552	165.000000	
73.701274	184.000000	
73.720995	157.000000	
73.740716	153.000000	
73.760438	137.000000	
73.780159	158.000000	
73.799881	188.000000	
73.819602	130.000000	
73.839323	140.000000	
73.859045	160.000000	
73.878766	138.000000	
73.898487	156.000000	
73.918209	160.000000	
73.937930	161.000000	
73.957651	155.000000	
73.977373	158.000000	
73.997094	169.000000	
74.016816	139.000000	
74.036537	169.000000	
74.056258	163.000000	
74.075980	164.000000	
74.095701	154.000000	
74.115422	167.000000	
74.135144	168.000000	
74.154865	182.000000	
74.174586	180.000000	
74.194308	164.000000	
74.214029	153.000000	
74.233751	175.000000	
74.253472	183.000000	
74.273193	166.000000	
74.292915	158.000000	
74.312636	164.000000	
74.332357	157.000000	
74.352079	160.000000	
74.371800	174.000000	
74.391521	171.000000	
74.411243	145.000000	
74.430964	167.000000	
74.450686	153.000000	
74.470407	184.000000	
74.490128	184.000000	
74.509850	188.000000	
74.529571	163.000000	
74.549292	175.000000	
74.569014	191.000000	
74.588735	206.000000	
74.608456	204.000000	
74.628178	242.000000	
74.647899	246.000000	
74.667621	238.000000	
74.687342	294.000000	
74.707063	316.000000	
74.726785	389.000000	
74.746506	418.000000	
74.766227	463.000000	
74.785949	576.000000	
74.805670	631.000000	
74.825391	652.000000	
74.845113	669.000000	
74.864834	657.000000	
74.884556	686.000000	
74.904277	697.000000	
74.923998	733.000000	
74.943720	731.000000	
74.963441	674.000000	
74.983162	625.000000	
75.002884	604.000000	
75.022605	579.000000	
75.042326	560.000000	
75.062048	495.000000	
75.081769	530.000000	
75.101491	480.000000	
75.121212	444.000000	
75.140933	431.000000	
75.160655	424.000000	
75.180376	386.000000	
75.200097	329.000000	
75.219819	293.000000	
75.239540	274.000000	
75.259261	251.000000	
75.278983	234.000000	
75.298704	197.000000	
75.318426	187.000000	
75.338147	216.000000	
75.357868	185.000000	
75.377590	182.000000	
75.397311	171.000000	
75.417032	169.000000	
75.436754	163.000000	
75.456475	176.000000	
75.476196	161.000000	
75.495918	172.000000	
75.515639	180.000000	
75.535361	165.000000	
75.555082	180.000000	
75.574803	174.000000	
75.594525	166.000000	
75.614246	164.000000	
75.633967	171.000000	
75.653689	167.000000	
75.673410	164.000000	
75.693131	167.000000	
75.712853	168.000000	
75.732574	154.000000	
75.752296	129.000000	
75.772017	187.000000	
75.791738	150.000000	
75.811460	165.000000	
75.831181	158.000000	
75.850902	154.000000	
75.870624	140.000000	
75.890345	161.000000	
75.910066	171.000000	
75.929788	154.000000	
75.949509	170.000000	
75.969231	142.000000	
75.988952	149.000000	
76.008673	176.000000	
76.028395	157.000000	
76.048116	135.000000	
76.067837	156.000000	
76.087559	148.000000	
76.107280	174.000000	
76.127001	177.000000	
76.146723	177.000000	
76.166444	166.000000	
76.186166	178.000000	
76.205887	150.000000	
76.225608	153.000000	
76.245330	171.000000	
76.265051	163.000000	
76.284772	158.000000	
76.304494	154.000000	
76.324215	156.000000	
76.343936	145.000000	
76.363658	195.000000	
76.383379	164.000000	
76.403101	153.000000	
76.422822	164.000000	
76.442543	182.000000	
76.462265	171.000000	
76.481986	166.000000	
76.501707	162.000000	
76.521429	153.000000	
76.541150	154.000000	
76.560871	166.000000	
76.580593	139.000000	
76.600314	167.000000	
76.620036	145.000000	
76.639757	163.000000	
76.659478	150.000000	
76.679200	157.000000	
76.698921	137.000000	
76.718642	159.000000	
76.738364	169.000000	
76.758085	164.000000	
76.777806	156.000000	
76.797528	150.000000	
76.817249	164.000000	
76.836971	164.000000	
76.856692	155.000000	
76.876413	141.000000	
76.896135	147.000000	
76.915856	147.000000	
76.935577	153.000000	
76.955299	160.000000	
76.975020	171.000000	
76.994741	155.000000	
77.014463	143.000000	
77.034184	168.000000	
77.053906	169.000000	
77.073627	145.000000	
77.093348	134.000000	
77.113070	133.000000	
77.132791	156.000000	
77.152512	153.000000	
77.172234	157.000000	
77.191955	149.000000	
77.211676	190.000000	
77.231398	176.000000	
77.251119	170.000000	
77.270841	165.000000	
77.290562	163.000000	
77.310283	149.000000	
77.330005	175.000000	
77.349726	146.000000	
77.369447	162.000000	
77.389169	179.000000	
77.408890	154.000000	
77.428612	160.000000	
77.448333	145.000000	
77.468054	149.000000	
77.487776	145.000000	
77.507497	170.000000	
77.527218	146.000000	
77.546940	159.000000	
77.566661	164.000000	
77.586382	156.000000	
77.606104	160.000000	
77.625825	151.000000	
77.645547	139.000000	
77.665268	159.000000	
77.684989	166.000000	
77.704711	149.000000	
77.724432	157.000000	
77.744153	148.000000	
77.763875	170.000000	
77.783596	163.000000	
77.803317	133.000000	
77.823039	162.000000	
77.842760	149.000000	
77.862482	172.000000	
77.882203	144.000000	
77.901924	179.000000	
77.921646	134.000000	
77.941367	187.000000	
77.961088	154.000000	
77.980810	165.000000	
78.000531	153.000000	
78.020252	180.000000	
78.039974	147.000000	
78.059695	180.000000	
78.079417	138.000000	
78.099138	155.000000	
78.118859	163.000000	
78.138581	153.000000	
78.158302	161.000000	
78.178023	146.000000	
78.197745	160.000000	
78.217466	143.000000	
78.237187	147.000000	
78.256909	157.000000	
78.276630	147.000000	
78.296352	172.000000	
78.316073	149.000000	
78.335794	151.000000	
78.355516	153.000000	
78.375237	152.000000	
78.394958	166.000000	
78.414680	174.000000	
78.434401	163.000000	
78.454122	152.000000	
78.473844	160.000000	
78.493565	145.000000	
78.513287	168.000000	
78.533008	162.000000	
78.552729	150.000000	
78.572451	147.000000	
78.592172	173.000000	
78.611893	137.000000	
78.631615	160.000000	
78.651336	170.000000	
78.671057	152.000000	
78.690779	183.000000	
78.710500	145.000000	
78.730222	154.000000	
78.749943	150.000000	
78.769664	146.000000	
78.789386	145.000000	
78.809107	159.000000	
78.828828	158.000000	
78.848550	172.000000	
78.868271	162.000000	
78.887992	157.000000	
78.907714	160.000000	
78.927435	156.000000	
78.947157	169.000000	
78.966878	161.000000	
78.986599	167.000000	
79.006321	155.000000	
79.026042	166.000000	
79.045763	157.000000	
79.065485	151.000000	
79.085206	144.000000	
79.104927	158.000000	
79.124649	163.000000	
79.144370	152.000000	
79.164092	138.000000	
79.183813	131.000000	
79.203534	134.000000	
79.223256	173.000000	
79.242977	142.000000	
79.262698	140.000000	
79.282420	165.000000	
79.302141	157.000000	
79.321862	135.000000	
79.341584	166.000000	
79.361305	162.000000	
79.381027	139.000000	
79.400748	130.000000	
79.420469	144.000000	
79.440191	149.000000	
79.459912	125.000000	
79.479633	158.000000	
79.499355	150.000000	
79.519076	149.000000	
79.538797	146.000000	
79.558519	150.000000	
79.578240	183.000000	
79.597962	136.000000	
79.617683	142.000000	
79.637404	176.000000	
79.657126	151.000000	
79.676847	147.000000	
79.696568	147.000000	
79.716290	153.000000	
79.736011	164.000000	
79.755732	142.000000	
79.775454	167.000000	
79.795175	147.000000	
79.814897	179.000000	
79.834618	138.000000	
79.854339	164.000000	
79.874061	160.000000	
79.893782	142.000000	
79.913503	144.000000	
79.933225	158.000000	
79.952946	168.000000	
79.972667	153.000000	
79.992389	164.000000	
80.012110	143.000000	
80.031832	174.000000	
80.051553	178.000000	
80.071274	157.000000	
80.090996	144.000000	
80.110717	139.000000	
80.130438	136.000000	
80.150160	150.000000	
80.169881	148.000000	
80.189602	156.000000	
80.209324	160.000000	
80.229045	146.000000	
80.248767	123.000000	
80.268488	155.000000	
80.288209	148.000000	
80.307931	170.000000	
80.327652	133.000000	
80.347373	142.000000	
80.367095	150.000000	
80.386816	159.000000	
80.406537	155.000000	
80.426259	140.000000	
80.445980	145.000000	
80.465702	140.000000	
80.485423	146.000000	
80.505144	149.000000	
80.524866	143.000000	
80.544587	154.000000	
80.564308	151.000000	
80.584030	167.000000	
80.603751	138.000000	
80.623472	152.000000	
80.643194	172.000000	
80.662915	145.000000	
80.682637	160.000000	
80.702358	157.000000	
80.722079	153.000000	
80.741801	157.000000	
80.761522	147.000000	
80.781243	165.000000	
80.800965	174.000000	
80.820686	167.000000	
80.840407	155.000000	
80.860129	147.000000	
80.879850	173.000000	
80.899572	164.000000	
80.919293	137.000000	
80.939014	155.000000	
80.958736	163.000000	
80.978457	145.000000	
80.998178	157.000000	
81.017900	156.000000	
81.037621	174.000000	
81.057342	171.000000	
81.077064	145.000000	
81.096785	164.000000	
81.116507	137.000000	
81.136228	142.000000	
81.155949	133.000000	
81.175671	147.000000	
81.195392	149.000000	
81.215113	140.000000	
81.234835	165.000000	
81.254556	163.000000	
81.274277	153.000000	
81.293999	137.000000	
81.313720	141.000000	
81.333442	139.000000	
81.353163	163.000000	
81.372884	142.000000	
81.392606	145.000000	
81.412327	148.000000	
81.432048	158.000000	
81.451770	136.000000	
81.471491	153.000000	
81.491212	131.000000	
81.510934	143.000000	
81.530655	153.000000	
81.550377	150.000000	
81.570098	169.000000	
81.589819	173.000000	
81.609541	175.000000	
81.629262	141.000000	
81.648983	168.000000	
81.668705	150.000000	
81.688426	134.000000	
81.708147	144.000000	
81.727869	161.000000	
81.747590	169.000000	
81.767312	148.000000	
81.787033	162.000000	
81.806754	148.000000	
81.826476	150.000000	
81.846197	145.000000	
81.865918	140.000000	
81.885640	141.000000	
81.905361	192.000000	
81.925082	134.000000	
81.944804	138.000000	
81.964525	137.000000	
81.984247	153.000000	
82.003968	143.000000	
82.023689	154.000000	
82.043411	142.000000	
82.063132	159.000000	
82.082853	152.000000	
82.102575	154.000000	
82.122296	139.000000	
82.142017	168.000000	
82.161739	132.000000	
82.181460	169.000000	
82.201182	164.000000	
82.220903	170.000000	
82.240624	145.000000	
82.260346	122.000000	
82.280067	160.000000	
82.299788	156.000000	
82.319510	163.000000	
82.339231	151.000000	
82.358952	140.000000	
82.378674	147.000000	
82.398395	141.000000	
82.418117	170.000000	
82.437838	149.000000	
82.457559	152.000000	
82.477281	177.000000	
82.497002	163.000000	
82.516723	162.000000	
82.536445	141.000000	
82.556166	135.000000	
82.575887	160.000000	
82.595609	148.000000	
82.615330	156.000000	
82.635052	152.000000	
82.654773	145.000000	
82.674494	151.000000	
82.694216	162.000000	
82.713937	140.000000	
82.733658	165.000000	
82.753380	168.000000	
82.773101	158.000000	
82.792822	181.000000	
82.812544	163.000000	
82.832265	160.000000	
82.851987	165.000000	
82.871708	163.000000	
82.891429	142.000000	
82.911151	160.000000	
82.930872	164.000000	
82.950593	153.000000	
82.970315	164.000000	
82.990036	168.000000	
83.009757	166.000000	
83.029479	148.000000	
83.049200	146.000000	
83.068922	172.000000	
83.088643	163.000000	
83.108364	162.000000	
83.128086	151.000000	
83.147807	160.000000	
83.167528	163.000000	
83.187250	135.000000	
83.206971	135.000000	
83.226692	150.000000	
83.246414	142.000000	
83.266135	174.000000	
83.285857	146.000000	
83.305578	152.000000	
83.325299	166.000000	
83.345021	156.000000	
83.364742	125.000000	
83.384463	156.000000	
83.404185	136.000000	
83.423906	182.000000	
83.443627	159.000000	
83.463349	150.000000	
83.483070	147.000000	
83.502792	154.000000	
83.522513	151.000000	
83.542234	136.000000	
83.561956	156.000000	
83.581677	145.000000	
83.601398	137.000000	
83.621120	157.000000	
83.640841	155.000000	
83.660562	175.000000	
83.680284	147.000000	
83.700005	161.000000	
83.719727	147.000000	
83.739448	147.000000	
83.759169	156.000000	
83.778891	137.000000	
83.798612	147.000000	
83.818333	142.000000	
83.838055	157.000000	
83.857776	156.000000	
83.877497	156.000000	
83.897219	165.000000	
83.916940	163.000000	
83.936662	146.000000	
83.956383	170.000000	
83.976104	175.000000	
83.995826	138.000000	
84.015547	145.000000	
84.035268	153.000000	
84.054990	142.000000	
84.074711	154.000000	
84.094432	167.000000	
84.114154	157.000000	
84.133875	145.000000	
84.153597	142.000000	
84.173318	138.000000	
84.193039	153.000000	
84.212761	157.000000	
84.232482	144.000000	
84.252203	159.000000	
84.271925	158.000000	
84.291646	153.000000	
84.311367	160.000000	
84.331089	129.000000	
84.350810	159.000000	
84.370532	161.000000	
84.390253	157.000000	
84.409974	140.000000	
84.429696	158.000000	
84.449417	147.000000	
84.469138	144.000000	
84.488860	178.000000	
84.508581	160.000000	
84.528302	189.000000	
84.548024	159.000000	
84.567745	166.000000	
84.587467	150.000000	
84.607188	141.000000	
84.626909	146.000000	
84.646631	165.000000	
84.666352	175.000000	
84.686073	145.000000	
84.705795	129.000000	
84.725516	142.000000	
84.745237	152.000000	
84.764959	151.000000	
84.784680	149.000000	
84.804402	129.000000	
84.824123	127.000000	
84.843844	156.000000	
84.863566	134.000000	
84.883287	157.000000	
84.903008	140.000000	
84.922730	143.000000	
84.942451	151.000000	
84.962172	141.000000	
84.981894	144.000000	
85.001615	146.000000	
85.021337	149.000000	
85.041058	169.000000	
85.060779	164.000000	
85.080501	143.000000	
85.100222	137.000000	
85.119943	147.000000	
85.139665	138.000000	
85.159386	157.000000	
85.179107	154.000000	
85.198829	137.000000	
85.218550	129.000000	
85.238272	121.000000	
85.257993	134.000000	
85.277714	165.000000	
85.297436	162.000000	
85.317157	171.000000	
85.336878	153.000000	
85.356600	128.000000	
85.376321	141.000000	
85.396042	163.000000	
85.415764	160.000000	
85.435485	138.000000	
85.455207	143.000000	
85.474928	159.000000	
85.494649	136.000000	
85.514371	153.000000	
85.534092	154.000000	
85.553813	170.000000	
85.573535	148.000000	
85.593256	131.000000	
85.612977	151.000000	
85.632699	163.000000	
85.652420	148.000000	
85.672142	140.000000	
85.691863	125.000000	
85.711584	157.000000	
85.731306	162.000000	
85.751027	138.000000	
85.770748	155.000000	
85.790470	140.000000	
85.810191	139.000000	
85.829912	140.000000	
85.849634	165.000000	
85.869355	147.000000	
85.889077	128.000000	
85.908798	142.000000	
85.928519	130.000000	
85.948241	137.000000	
85.967962	138.000000	
85.987683	147.000000	
86.007405	162.000000	
86.027126	151.000000	
86.046848	163.000000	
86.066569	134.000000	
86.086290	147.000000	
86.106012	133.000000	
86.125733	170.000000	
86.145454	148.000000	
86.165176	140.000000	
86.184897	143.000000	
86.204618	135.000000	
86.224340	157.000000	
86.244061	145.000000	
86.263783	148.000000	
86.283504	142.000000	
86.303225	169.000000	
86.322947	129.000000	
86.342668	125.000000	
86.362389	158.000000	
86.382111	160.000000	
86.401832	141.000000	
86.421553	139.000000	
86.441275	155.000000	
86.460996	142.000000	
86.480718	135.000000	
86.500439	165.000000	
86.520160	151.000000	
86.539882	149.000000	
86.559603	157.000000	
86.579324	138.000000	
86.599046	139.000000	
86.618767	140.000000	
86.638488	156.000000	
86.658210	149.000000	
86.677931	159.000000	
86.697653	129.000000	
86.717374	163.000000	
86.737095	156.000000	
86.756817	146.000000	
86.776538	152.000000	
86.796259	131.000000	
86.815981	137.000000	
86.835702	144.000000	
86.855423	161.000000	
86.875145	151.000000	
86.894866	152.000000	
86.914588	134.000000	
86.934309	163.000000	
86.954030	131.000000	
86.973752	146.000000	
86.993473	150.000000	
87.013194	153.000000	
87.032916	142.000000	
87.052637	143.000000	
87.072358	149.000000	
87.092080	162.000000	
87.111801	157.000000	
87.131523	150.000000	
87.151244	140.000000	
87.170965	145.000000	
87.190687	146.000000	
87.210408	135.000000	
87.230129	171.000000	
87.249851	121.000000	
87.269572	137.000000	
87.289293	126.000000	
87.309015	159.000000	
87.328736	156.000000	
87.348458	143.000000	
87.368179	149.000000	
87.387900	144.000000	
87.407622	131.000000	
87.427343	137.000000	
87.447064	137.000000	
87.466786	149.000000	
87.486507	144.000000	
87.506228	160.000000	
87.525950	144.000000	
87.545671	160.000000	
87.565393	156.000000	
87.585114	150.000000	
87.604835	165.000000	
87.624557	142.000000	
87.644278	148.000000	
87.663999	147.000000	
87.683721	128.000000	
87.703442	139.000000	
87.723163	132.000000	
87.742885	144.000000	
87.762606	153.000000	
87.782328	137.000000	
87.802049	151.000000	
87.821770	125.000000	
87.841492	155.000000	
87.861213	163.000000	
87.880934	153.000000	
87.900656	138.000000	
87.920377	157.000000	
87.940098	136.000000	
87.959820	148.000000	
87.979541	166.000000	
87.999263	129.000000	
88.018984	132.000000	
88.038705	145.000000	
88.058427	141.000000	
88.078148	133.000000	
88.097869	169.000000	
88.117591	135.000000	
88.137312	156.000000	
88.157033	143.000000	
88.176755	137.000000	
88.196476	143.000000	
88.216198	135.000000	
88.235919	122.000000	
88.255640	130.000000	
88.275362	141.000000	
88.295083	146.000000	
88.314804	148.000000	
88.334526	134.000000	
88.354247	170.000000	
88.373968	143.000000	
88.393690	159.000000	
88.413411	149.000000	
88.433133	158.000000	
88.452854	134.000000	
88.472575	145.000000	
88.492297	155.000000	
88.512018	163.000000	
88.531739	153.000000	
88.551461	154.000000	
88.571182	146.000000	
88.590903	167.000000	
88.610625	149.000000	
88.630346	155.000000	
88.650068	152.000000	
88.669789	139.000000	
88.689510	155.000000	
88.709232	149.000000	
88.728953	157.000000	
88.748674	153.000000	
88.768396	144.000000	
88.788117	154.000000	
88.807838	126.000000	
88.827560	138.000000	
88.847281	133.000000	
88.867003	133.000000	
88.886724	147.000000	
88.906445	132.000000	
88.926167	141.000000	
88.945888	176.000000	
88.965609	156.000000	
88.985331	155.000000	
89.005052	163.000000	
89.024773	176.000000	
89.044495	164.000000	
89.064216	153.000000	
89.083938	164.000000	
89.103659	140.000000	
89.123380	132.000000	
89.143102	145.000000	
89.162823	132.000000	
89.182544	163.000000	
89.202266	151.000000	
89.221987	142.000000	
89.241708	145.000000	
89.261430	142.000000	
89.281151	143.000000	
89.300873	168.000000	
89.320594	136.000000	
89.340315	134.000000	
89.360037	152.000000	
89.379758	149.000000	
89.399479	147.000000	
89.419201	154.000000	
89.438922	159.000000	
89.458643	147.000000	
89.478365	154.000000	
89.498086	152.000000	
89.517808	147.000000	
89.537529	162.000000	
89.557250	161.000000	
89.576972	144.000000	
89.596693	158.000000	
89.616414	166.000000	
89.636136	173.000000	
89.655857	136.000000	
89.675578	166.000000	
89.695300	142.000000	
89.715021	160.000000	
89.734743	148.000000	
89.754464	133.000000	
89.774185	172.000000	
89.793907	132.000000	
89.813628	156.000000	
89.833349	141.000000	
89.853071	162.000000	
89.872792	149.000000	
89.892513	149.000000	
89.912235	155.000000	
89.931956	156.000000	
89.951678	156.000000	
89.971399	131.000000	
89.991120	161.000000	
