?
20.0     12
20.01972 12
20.03944 12
20.05916 10
20.07888 9
20.09860 6
20.11832 5
20.13805 6
20.15777 7
20.17749 7
20.19721 5
20.21693 6
20.23665 9
20.25637 11
20.27609 13
20.29582 13
20.31554 13
20.33526 10
20.35498 9
20.37470 9
20.39442 9
20.41414 9
20.43387 10
20.45359 8
20.47331 7
20.49303 5
20.51275 5
20.53247 5
20.55219 5
20.57192 9
20.59164 13
20.61136 13
20.63108 9
20.65080 7
20.67052 7
20.69024 9
20.70996 13
20.72969 15
20.74941 16
20.76913 15
20.78885 9
20.80857 5
20.82829 6
20.84801 8
20.86774 12
20.88746 12
20.90718 14
20.92690 11
20.94662 9
20.96634 7
20.98606 10
21.00578 10
21.02551 10
21.04523 8
21.06495 8
21.08467 7
21.10439 9
21.12411 11
21.14383 12
21.16356 7
21.18328 6
21.20300 7
21.22272 9
21.24244 12
21.26216 15
21.28188 18
21.30161 18
21.32133 12
21.34105 11
21.36077 9
21.38049 7
21.40021 7
21.41993 8
21.43965 8
21.45938 8
21.47910 10
21.49882 10
21.51854 11
21.53826 12
21.55798 12
21.57770 12
21.59743 7
21.61715 7
21.63687 11
21.65659 13
21.67631 13
21.69603 13
21.71575 12
21.73547 12
21.75520 9
21.77492 11
21.79464 14
21.81436 17
21.83408 13
21.85380 11
21.87352 10
21.89325 11
21.91297 8
21.93269 10
21.95241 12
21.97213 12
21.99185 7
22.01158 9
22.03130 13
22.05102 14
22.07074 11
22.09046 11
22.11018 8
22.12990 8
22.14963 5
22.16935 8
22.18907 9
22.20879 8
22.22851 5
22.24823 4
22.26795 6
22.28767 11
22.3074  13
22.32712 11
22.34684 10
22.36656 8
22.38628 7
22.40600 6
22.42572 7
22.44545 12
22.46517 16
22.48489 17
22.50461 16
22.52433 15
22.54405 14
22.56377 13
22.58349 12
22.60322 15
22.62294 14
22.64266 13
22.66238 11
22.68210 10
22.70182 8
22.72154 7
22.74127 6
22.76099 6
22.78071 7
22.80043 9
22.82015 13
22.83987 13
22.85959 11
22.87932 6
22.89904 4
22.91876 3
22.93848 8
22.95820 11
22.97792 13
22.99764 14
23.01736 13
23.03709 12
23.05681 10
23.07653 9
23.09625 10
23.11597 11
23.13569 12
23.15541 13
23.17514 10
23.19486 8
23.21458 9
23.23430 12
23.25402 11
23.27374 12
23.29346 13
23.31318 7
23.33291 6
23.35263 5
23.37235 12
23.39207 16
23.41179 16
23.43151 15
23.45123 10
23.47096 3
23.49068 5
23.51040 4
23.53012 7
23.54984 7
23.56956 7
23.58928 9
23.60900 10
23.62873 10
23.64845 10
23.66817 11
23.68789 13
23.70761 11
23.72733 12
23.74705 14
23.76678 13
23.78650 10
23.80622 11
23.82594 11
23.84566 10
23.86538 8
23.88510 12
23.90483 13
23.92455 15
23.94427 14
23.96399 16
23.98371 20
24.00343 21
24.02315 24
24.04287 27
24.06260 30
24.08232 49
24.10204 87
24.12176 153
24.14148 253
24.16120 359
24.18092 446
24.20065 466
24.22037 424
24.24009 337
24.25981 224
24.27953 113
24.29925 46
24.31897 16
24.33869 17
24.35842 14
24.37814 20
24.39786 23
24.41758 23
24.43730 17
24.45702 14
24.47674 11
24.49647 10
24.51619 6
24.53591 10
24.55563 12
24.57535 15
24.59507 16
24.61479 12
24.63452 9
24.65424 7
24.67396 10
24.69368 15
24.71340 20
24.73312 19
24.75285 17
24.77257 14
24.79229 12
24.81201 8
24.83173 8
24.85145 6
24.87117 10
24.89089 8
24.91062 7
24.93034 10
24.95006 11
24.96978 13
24.98950 12
25.00922 11
25.02894 11
25.04867 10
25.06839 11
25.08811 14
25.10783 15
25.12755 15
25.14727 11
25.16699 12
25.18671 10
25.20644 11
25.22616 12
25.24588 12
25.26560 12
25.28532 7
25.30504 5
25.32476 10
25.34449 12
25.36421 12
25.38393 9
25.40365 7
25.42337 8
25.44309 7
25.46281 7
25.48254 9
25.50226 10
25.52198 9
25.54170 11
25.56142 13
25.58114 14
25.60086 12
25.62058 11
25.64031 10
25.66003 14
25.67975 16
25.69947 19
25.71919 18
25.73891 13
25.75863 5
25.77836 2
25.79808 1
25.81780 7
25.83752 10
25.85724 14
25.87696 14
25.89668 12
25.91640 7
25.93613 7
25.95585 6
25.97557 7
25.99529 7
26.01501 7
26.03473 3
26.05445 5
26.07418 4
26.09390 9
26.11362 10
26.13334 11
26.15306 11
26.17278 8
26.19250 4
26.21223 6
26.23195 6
26.25167 6
26.27139 7
26.29111 11
26.31083 13
26.33055 13
26.35027 11
26.37000 9
26.38972 7
26.40944 3
26.42916 0
26.44888 3
26.46860 6
26.48832 8
26.50805 8
26.52777 6
26.54749 7
26.56721 5
26.58693 5
26.60665 8
26.62637 10
26.64609 12
26.66582 10
26.68554 11
26.70526 11
26.72498 8
26.74470 8
26.76442 8
26.78414 5
26.80387 8
26.82359 6
26.84331 11
26.86303 11
26.88275 10
26.90247 8
26.92219 6
26.94192 7
26.96164 11
26.98136 13
27.00108 15
27.02080 13
27.04052 7
27.06024 3
27.07996 0
27.09969 0
27.11941 4
27.13913 8
27.15885 11
27.17857 11
27.19829 9
27.21801 9
27.23774 6
27.25746 4
27.27718 5
27.29690 4
27.31662 10
27.33634 14
27.35607 16
27.37579 20
27.39551 19
27.41523 16
27.43495 14
27.45467 9
27.47439 10
27.49411 10
27.51384 10
27.53356 10
27.55328 5
27.57300 3
27.59272 5
27.61244 5
27.63216 5
27.65189 10
27.67161 10
27.69133 13
27.71105 12
27.73077 10
27.75049 8
27.77021 4
27.78994 2
27.80966 4
27.82938 3
27.84910 9
27.86882 11
27.88854 11
27.90826 7
27.92798 4
27.94771 6
27.96743 6
27.98715 7
28.00687 8
28.02659 8
28.04631 5
28.06603 3
28.08576 3
28.10548 6
28.12520 7
28.14492 6
28.16464 5
28.18436 4
28.20408 2
28.22380 4
28.24353 4
28.26325 5
28.28297 5
28.30269 7
28.32241 7
28.34213 9
28.36185 10
28.38158 10
28.4013  9
28.42102 7
28.44074 7
28.46046 7
28.48018 5
28.49990 8
28.51963 9
28.53935 11
28.55907 12
28.57879 11
28.59851 10
28.61823 6
28.63795 6
28.65767 5
28.67740 5
28.69712 7
28.71684 7
28.73656 6
28.75628 5
28.77600 4
28.79572 5
28.81545 10
28.83517 12
28.85489 14
28.87461 13
28.89433 10
28.91405 7
28.93377 5
28.95349 5
28.97322 11
28.99294 11
29.01266 12
29.03238 12
29.05210 9
29.07182 5
29.09154 2
29.11127 3
29.13099 5
29.15071 10
29.17043 13
29.19015 16
29.20987 16
29.22959 11
29.24931 8
29.26904 7
29.28876 4
29.30848 7
29.32820 7
29.34792 7
29.36764 6
29.38736 2
29.40709 6
29.42681 11
29.44653 14
29.46625 16
29.48597 16
29.50569 12
29.52541 8
29.54514 3
29.56486 3
29.58458 7
29.60430 12
29.62402 13
29.64374 12
29.66346 11
29.68318 9
29.70291 4
29.72263 4
29.74235 6
29.76207 9
29.78179 9
29.80151 7
29.82123 6
29.84096 7
29.86068 5
29.88040 10
29.90012 11
29.91984 11
29.93956 9
29.95929 4
29.97901 2
29.99873 3
30.01845 4
30.03817 12
30.05789 19
30.07761 26
30.09734 28
30.11706 24
30.13678 23
30.15650 20
30.17622 17
30.19594 19
30.21566 18
30.23538 18
30.25511 14
30.27483 8
30.29455 9
30.31427 11
30.33399 13
30.35371 16
30.37343 15
30.39316 16
30.41288 12
30.43260 8
30.45232 9
30.47204 8
30.49176 8
30.51148 9
30.53120 8
30.55093 10
30.57065 11
30.59037 13
30.61009 13
30.62981 10
30.64953 8
30.66925 6
30.68898 2
30.7087  3
30.72842 9
30.74814 12
30.76786 14
30.78758 12
30.80730 10
30.82702 11
30.84675 10
30.86647 13
30.88619 16
30.90591 16
30.92563 12
30.94535 6
30.96507 3
30.9848  4
31.00452 6
31.02424 10
31.04396 14
31.06368 17
31.08340 18
31.10312 20
31.12285 21
31.14257 19
31.16229 18
31.18201 14
31.20173 14
31.22145 13
31.24117 10
31.26089 10
31.28062 7
31.30034 5
31.32006 6
31.33978 7
31.35950 12
31.37922 15
31.39894 13
31.41867 15
31.43839 12
31.45811 8
31.47783 10
31.49755 11
31.51727 12
31.53699 16
31.55671 13
31.57644 18
31.59616 17
31.61588 13
31.63560 14
31.65532 11
31.67504 9
31.69476 12
31.71449 10
31.73421 15
31.75393 14
31.77365 12
31.79337 12
31.81309 10
31.83281 9
31.85254 13
31.87226 14
31.89198 15
31.91170 14
31.93142 11
31.95114 7
31.97086 6
31.99058 6
32.01031 8
32.03003 15
32.04975 18
32.06947 19
32.08919 19
32.10891 17
32.12863 18
32.14836 19
32.16808 17
32.18780 20
32.20752 18
32.22724 14
32.24696 14
32.26668 12
32.28641 10
32.30613 13
32.32585 19
32.34557 19
32.36529 23
32.38501 21
32.40473 19
32.42446 17
32.44418 15
32.46390 18
32.48362 22
32.50334 20
32.52306 20
32.54278 16
32.56250 11
32.58223 8
32.60195 7
32.62167 10
32.64139 15
32.66111 20
32.68083 21
32.70055 21
32.72028 20
32.74000 19
32.75972 18
32.77944 20
32.79916 22
32.81888 22
32.83860 23
32.85833 27
32.87805 33
32.89777 36
32.91749 31
32.93721 31
32.95693 32
32.97665 35
32.99638 49
33.01610 68
33.03582 92
33.05554 125
33.07526 198
33.09498 340
33.11470 620
33.13443 1054
33.15415 1631
33.17387 2204
33.19359 2599
33.21331 2651
33.23303 2342
33.25275 1784
33.27248 1161
33.29219 611
33.31192 267
33.33164 101
33.35136 50
33.37108 28
33.39080 14
33.41052 25
33.43024 48
33.44997 56
33.46969 60
33.48941 49
33.50913 30
33.52885 18
33.54857 9
33.56829 7
33.58802 15
33.60774 25
33.62746 29
33.64718 29
33.66690 25
33.68662 17
33.70634 12
33.72607 9
33.74579 7
33.76551 12
33.78523 17
33.80495 21
33.82467 24
33.84439 22
33.86412 18
33.88384 11
33.90356 4
33.92328 7
33.94300 12
33.96272 18
33.98244 24
34.00217 27
34.02188 24
34.04161 14
34.06133 9
34.08105 9
34.10077 7
34.12049 10
34.14021 16
34.15993 20
34.17966 19
34.19938 15
34.21910 14
34.23882 13
34.25854 8
34.27826 9
34.29798 12
34.31771 14
34.33743 15
34.35715 15
34.37687 13
34.39659 14
34.41631 9
34.43603 9
34.45576 13
34.47548 14
34.49520 18
34.51492 22
34.53464 20
34.55436 19
34.57408 15
34.59381 10
34.61353 11
34.63325 9
34.65297 10
34.67269 12
34.69241 10
34.71213 11
34.73186 14
34.75157 12
34.77130 14
34.79102 14
34.81074 10
34.83046 7
34.85018 5
34.86990 10
34.88962 15
34.90935 18
34.92907 21
34.94879 22
34.96851 17
34.98823 11
35.00795 8
35.02767 8
35.04740 8
35.06712 8
35.08684 9
35.10656 9
35.12628 12
35.14600 13
35.16573 12
35.18545 15
35.20517 16
35.22489 17
35.24461 15
35.26433 14
35.28405 15
35.30378 15
35.32350 18
35.34322 28
35.36294 44
35.38266 74
35.40238 111
35.42210 167
35.44183 229
35.46155 274
35.48127 292
35.50099 281
35.52071 245
35.54043 195
35.56015 148
35.57988 127
35.59959 121
35.61932 120
35.63904 123
35.65876 124
35.67848 112
35.69820 94
35.71792 69
35.73764 49
35.75737 30
35.77709 15
35.79681 10
35.81653 7
35.83625 5
35.85597 10
35.87569 10
35.89542 14
35.91514 14
35.93486 14
35.95458 13
35.97430 9
35.99402 9
36.01374 9
36.03347 9
36.05319 11
36.07291 9
36.09263 12
36.11235 10
36.13207 7
36.15179 8
36.17152 8
36.19124 10
36.21096 10
36.23068 9
36.25040 9
36.27012 6
36.28984 7
36.30957 9
36.32928 12
36.34901 16
36.36873 18
36.38845 19
36.40817 14
36.42789 11
36.44761 8
36.46733 5
36.48706 5
36.50678 6
36.52650 10
36.54622 13
36.56594 14
36.58566 13
36.60538 12
36.62511 7
36.64483 8
36.66455 9
36.68427 13
36.70399 13
36.72371 12
36.74343 8
36.76316 5
36.78288 3
36.80260 7
36.82232 12
36.84204 16
36.86176 18
36.88148 15
36.90121 10
36.92092 7
36.94065 6
36.96037 4
36.98009 7
36.99981 6
37.01953 12
37.03926 13
37.05897 20
37.07870 24
37.09842 25
37.11814 23
37.13786 21
37.15758 15
37.17730 15
37.19702 13
37.21675 17
37.23647 13
37.25619 11
37.27591 14
37.29563 11
37.31535 11
37.33507 13
37.35480 17
37.37452 18
37.39424 14
37.41396 13
37.43368 13
37.45340 8
37.47312 6
37.49285 5
37.51257 4
37.53229 7
37.55201 8
37.57173 12
37.59145 14
37.61117 15
37.63090 15
37.65062 15
37.67034 11
37.69006 10
37.70978 8
37.72950 8
37.74922 5
37.76894 5
37.78867 7
37.80839 10
37.82811 10
37.84783 9
37.86755 10
37.88728 8
37.90699 7
37.92672 8
37.94644 9
37.96616 9
37.98588 9
38.00560 10
38.02532 10
38.04504 7
38.06477 6
38.08449 6
38.10421 5
38.12393 5
38.14365 7
38.16337 13
38.18309 14
38.20282 14
38.22254 15
38.24226 13
38.26198 8
38.28170 5
38.30142 4
38.32114 5
38.34087 8
38.36059 13
38.38031 15
38.40003 15
38.41975 11
38.43947 9
38.45919 4
38.47892 5
38.49863 7
38.51836 11
38.53808 11
38.55780 10
38.57752 10
38.59724 8
38.61697 6
38.63668 8
38.65641 8
38.67613 8
38.69585 10
38.71557 11
38.73529 13
38.75501 13
38.77473 15
38.79446 13
38.81418 12
38.83390 8
38.85362 10
38.87334 10
38.89306 9
38.91278 9
38.93251 9
38.95223 8
38.97195 7
38.99167 5
39.01139 5
39.03111 6
39.05083 6
39.07056 7
39.09028 9
39.11000 11
39.12972 14
39.14944 12
39.16916 13
39.18888 10
39.20861 9
39.22832 12
39.24805 19
39.26777 28
39.28749 39
39.30721 43
39.32693 42
39.34665 34
39.36637 27
39.38610 19
39.40582 11
39.42554 8
39.44526 7
39.46498 6
39.48470 8
39.50442 10
39.52415 12
39.54387 12
39.56359 11
39.58331 10
39.60303 7
39.62275 5
39.64247 5
39.66220 6
39.68192 6
39.70164 7
39.72136 7
39.74108 10
39.76080 10
39.78052 10
39.80025 9
39.81997 9
39.83969 8
39.85941 6
39.87913 5
39.89885 8
39.91857 8
39.93830 11
39.95801 13
39.97774 14
39.99746 13
40.01718 14
40.03690 13
40.05662 12
40.07634 9
40.09606 9
40.11579 8
40.13551 7
40.15523 3
40.17495 6
40.19467 7
40.21439 11
40.23411 10
40.25384 14
40.27356 15
40.29328 13
40.31300 11
40.33272 13
40.35244 11
40.37216 10
40.39189 8
40.41161 10
40.43133 10
40.45105 10
40.47077 11
40.49049 15
40.51022 14
40.52994 13
40.54966 12
40.56938 9
40.58910 8
40.60882 10
40.62854 11
40.64827 14
40.66799 16
40.68771 19
40.70743 19
40.72715 19
40.74687 22
40.76659 30
40.78632 45
40.80603 67
40.82576 96
40.84548 123
40.86520 145
40.88492 146
40.90464 131
40.92436 100
40.94408 72
40.96381 45
40.98353 29
41.00325 21
41.02297 27
41.04269 26
41.06241 27
41.08213 22
41.10186 18
41.12158 12
41.14130 6
41.16102 1
41.18074 4
41.20046 7
41.22018 10
41.23991 11
41.25963 14
41.27935 14
41.29907 10
41.31879 8
41.33851 9
41.35823 10
41.37796 9
41.39768 10
41.4174  13
41.43712 13
41.45684 9
41.47656 9
41.49628 12
41.51601 10
41.53572 11
41.55545 14
41.57517 18
41.59489 18
41.61461 14
41.63433 12
41.65405 9
41.67377 5
41.69350 3
41.71322 6
41.73294 9
41.75266 10
41.77238 10
41.79210 8
41.81182 7
41.83155 8
41.85127 7
41.87099 13
41.89071 14
41.91043 13
41.93015 12
41.94987 11
41.96960 11
41.98932 10
42.00904 9
42.02876 9
42.04848 6
42.06820 4
42.08792 3
42.10765 3
42.12737 6
42.14709 10
42.16681 12
42.18653 14
42.20625 16
42.22597 13
42.24570 11
42.26541 9
42.28514 10
42.30486 9
42.32458 9
42.34430 12
42.36402 14
42.38374 14
42.40346 14
42.42319 18
42.44291 18
42.46263 16
42.48235 12
42.50207 8
42.52179 7
42.54151 10
42.56124 10
42.58096 15
42.60068 19
42.62040 20
42.64012 15
42.65984 9
42.67956 9
42.69929 6
42.71901 2
42.73873 6
42.75845 9
42.77817 11
42.79789 11
42.81761 12
42.83734 13
42.85706 12
42.87678 10
42.89650 9
42.91622 9
42.93594 9
42.95566 9
42.97539 13
42.99511 21
43.01483 31
43.03455 36
43.05427 37
43.07399 42
43.09371 43
43.11343 39
43.13316 35
43.15288 33
43.17260 31
43.19232 23
43.21204 17
43.23176 18
43.25148 19
43.27121 18
43.29093 19
43.31065 19
43.33037 21
43.35009 17
43.36981 14
43.38953 10
43.40926 8
43.42898 10
43.44870 11
43.46842 15
43.48814 18
43.50786 19
43.52758 19
43.54731 16
43.56703 15
43.58675 16
43.60647 14
43.62619 16
43.64591 14
43.66563 13
43.68536 13
43.70508 14
43.7248  12
43.74452 10
43.76424 10
43.78396 11
43.80368 10
43.82341 11
43.84312 14
43.86285 16
43.88257 15
43.90229 11
43.92201 12
43.94173 12
43.96145 9
43.98117 11
44.0009  11
44.02062 11
44.04034 13
44.06006 13
44.07978 15
44.09950 14
44.11922 13
44.13895 13
44.15867 9
44.17839 7
44.19811 8
44.21783 11
44.23755 13
44.25727 13
44.277   14
44.29672 12
44.31644 11
44.33616 7
44.35588 9
44.37560 10
44.39532 10
44.41505 13
44.43477 13
44.45449 13
44.47421 11
44.49393 11
44.51365 12
44.53337 9
44.55310 8
44.57281 9
44.59254 8
44.61226 6
44.63198 6
44.65170 9
44.67142 8
44.69114 9
44.71086 8
44.73059 7
44.75031 10
44.77003 9
44.78975 10
44.80947 10
44.82919 8
44.84891 10
44.86864 9
44.88836 10
44.90808 12
44.92780 12
44.94752 12
44.96724 9
44.98696 8
45.00669 8
45.02641 6
45.04613 6
45.06585 6
45.08557 9
45.10529 10
45.12501 9
45.14474 11
45.16446 10
45.18418 11
45.20390 12
45.22362 12
45.24334 13
45.26306 10
45.28279 9
45.30250 7
45.32223 3
45.34195 6
45.36167 7
45.38139 9
45.40111 8
45.42083 11
45.44055 13
45.46028 10
45.48000 9
45.49972 10
45.51944 11
45.53916 12
45.55888 10
45.57860 11
45.59833 11
45.61805 6
45.63777 7
45.65749 7
45.67721 9
45.69693 8
45.71666 7
45.73638 8
45.75610 10
45.77582 7
45.79554 9
45.81526 11
45.83498 11
45.85471 9
45.87443 6
45.89415 7
45.91387 6
45.93359 4
45.95331 6
45.97303 8
45.99276 9
46.01248 8
46.0322  7
46.05192 7
46.07164 6
46.09136 8
46.11108 7
46.13081 7
46.15052 10
46.17025 11
46.18997 11
46.20969 8
46.22941 9
46.24913 10
46.26885 6
46.28857 5
46.3083  8
46.32802 11
46.34774 12
46.36746 12
46.38718 15
46.40690 16
46.42662 12
46.44635 9
46.46607 8
46.48579 10
46.50551 10
46.52523 8
46.54495 11
46.56467 11
46.5844  9
46.60412 7
46.62384 5
46.64356 5
46.66328 4
46.68300 4
46.70272 6
46.72245 6
46.74217 7
46.76189 9
46.78161 7
46.80133 6
46.82105 6
46.84077 9
46.8605  11
46.88021 11
46.89994 12
46.91966 14
46.93938 10
46.95910 8
46.97882 6
46.99854 6
47.01826 6
47.03799 5
47.05771 7
47.07743 10
47.09715 11
47.11687 13
47.13659 12
47.15631 13
47.17604 11
47.19576 7
47.21548 5
47.23520 6
47.25492 6
47.27464 6
47.29436 8
47.31409 10
47.33381 12
47.35353 12
47.37325 13
47.39297 14
47.41269 13
47.43241 10
47.45214 8
47.47186 6
47.49158 5
47.51130 3
47.53102 5
47.55074 5
47.57046 6
47.59019 10
47.60990 8
47.62963 12
47.64935 12
47.66907 14
47.68879 14
47.70851 12
47.72823 12
47.74795 13
47.76768 10
47.78740 11
47.80712 6
47.82684 7
47.84656 5
47.86628 8
47.88600 9
47.90573 10
47.92545 10
47.94517 11
47.96489 8
47.98461 8
48.00433 9
48.02405 8
48.04378 9
48.06350 9
48.08322 8
48.10294 12
48.12266 13
48.14238 16
48.16210 16
48.18183 11
48.20155 12
48.22127 10
48.24099 6
48.26071 8
48.28043 7
48.30015 9
48.31988 9
48.3396  7
48.35932 9
48.37904 10
48.39876 8
48.41848 8
48.43821 5
48.45792 7
48.47765 8
48.49737 8
48.51709 9
48.53681 9
48.55653 8
48.57625 7
48.59597 5
48.6157  7
48.63542 11
48.65514 10
48.67486 12
48.69458 11
48.71430 12
48.73402 9
48.75375 7
48.77347 6
48.79319 6
48.81291 4
48.83263 7
48.85235 7
48.87207 10
48.8918  11
48.91152 11
48.93124 12
48.95096 12
48.97068 12
48.99040 12
49.01012 11
49.02985 9
49.04956 9
49.06929 8
49.08901 9
49.10873 11
49.12845 11
49.14817 14
49.1679  15
49.18761 17
49.20734 20
49.22706 25
49.24678 28
49.26650 31
49.28622 40
49.30594 55
49.32566 79
49.34539 110
49.36511 156
49.38483 209
49.40455 264
49.42427 310
49.44399 352
49.46371 374
49.48344 365
49.50316 326
49.52288 265
49.54260 194
49.56232 127
49.58204 70
49.60176 34
49.62149 21
49.64121 16
49.66093 17
49.68065 17
49.70037 21
49.72009 20
49.73981 19
49.75954 14
49.77925 10
49.79898 9
49.81870 6
49.83842 6
49.85814 6
49.87786 8
49.89759 11
49.91730 14
49.93703 15
49.95675 15
49.97647 13
49.99619 14
50.01591 11
50.03563 11
50.05535 9
50.07508 10
50.09480 5
50.11452 10
50.13424 10
50.15396 14
50.17368 15
50.19340 15
50.21313 13
50.23285 11
50.25257 5
50.27229 6
50.29201 6
50.31173 5
50.33145 7
50.35118 9
50.37090 11
50.39062 12
50.41034 12
50.43006 13
50.44978 13
50.46950 10
50.48923 9
50.50894 8
50.52867 6
50.54839 7
50.56811 8
50.58783 10
50.60755 11
50.62727 11
50.64699 10
50.66672 9
50.68644 7
50.70616 7
50.72588 5
50.74560 6
50.76532 7
50.78504 9
50.80477 10
50.82449 10
50.84421 10
50.86393 11
50.88365 10
50.90337 9
50.9231  8
50.94282 6
50.96254 3
50.98226 2
51.00198 1
51.02170 2
51.04142 3
51.06115 6
51.08087 9
51.10059 11
51.12031 12
51.14003 13
51.15975 12
51.17947 11
51.1992  9
51.21892 9
51.23864 6
51.25836 6
51.27808 5
51.29780 7
51.31752 8
51.33725 12
51.35696 13
51.37669 14
51.39641 12
51.41613 11
51.43585 9
51.45557 7
51.47529 2
51.49501 5
51.51474 3
51.53446 5
51.55418 6
51.57390 7
51.59362 10
51.61334 10
51.63306 7
51.65279 9
51.67251 10
51.69223 10
51.71195 9
51.73167 9
51.75139 12
51.77111 12
51.79084 8
51.81056 8
51.83028 6
51.85000 6
51.86972 7
51.88944 7
51.90916 10
51.92889 11
51.94861 10
51.96833 10
51.98805 10
52.00777 10
52.02749 8
52.04721 8
52.06694 7
52.08665 9
52.10638 9
52.12610 9
52.14582 9
52.16554 7
52.18526 5
52.20498 7
52.22470 8
52.24443 10
52.26415 10
52.28387 12
52.30359 15
52.32331 16
52.34303 13
52.36275 14
52.38248 13
52.40220 9
52.42192 5
52.44164 5
52.46136 4
52.48108 6
52.50080 5
52.52053 7
52.54025 9
52.55997 11
52.57969 10
52.59941 9
52.61913 6
52.63885 5
52.65858 6
52.67830 6
52.69802 9
52.71774 12
52.73746 12
52.75718 12
52.77690 8
52.79663 8
52.81634 11
52.83607 11
52.85579 11
52.87551 9
52.89523 7
52.91495 9
52.93467 8
52.95439 9
52.97412 11
52.99384 11
53.01356 10
53.03328 9
53.05300 9
53.07272 9
53.09244 7
53.11217 5
53.13189 6
53.15161 5
53.17133 7
53.19105 7
53.21077 9
53.23049 10
53.25022 11
53.26994 11
53.28966 12
53.30938 11
53.32910 14
53.34882 13
53.36854 16
53.38827 17
53.40799 18
53.42771 20
53.44743 21
53.46715 17
53.48687 18
53.50659 20
53.52632 18
53.54604 23
53.56576 23
53.58548 24
53.60520 23
53.62492 16
53.64465 14
53.66436 13
53.68409 10
53.70381 13
53.72353 13
53.74325 15
53.76297 18
53.78269 17
53.80241 22
53.82214 21
53.84186 22
53.86158 26
53.88130 38
53.90102 53
53.92074 81
53.94046 120
53.96019 173
53.97991 225
53.99963 280
54.01935 331
54.03907 368
54.05879 383
54.07851 369
54.09824 338
54.11796 294
54.13768 233
54.15740 174
54.17712 125
54.19684 81
54.21656 55
54.23629 33
54.25601 24
54.27573 25
54.29545 20
54.31517 16
54.33489 16
54.35461 11
54.37434 11
54.39405 12
54.41378 9
54.43350 10
54.45322 12
54.47294 12
54.49266 15
54.51238 17
54.53210 16
54.55183 16
54.57155 13
54.59127 9
54.61099 7
54.63071 6
54.65043 4
54.67015 4
54.68988 3
54.70960 2
54.72932 4
54.74904 6
54.76876 5
54.78848 6
54.80820 7
54.82793 11
54.84765 13
54.86737 14
54.88709 14
54.90681 14
54.92653 10
54.94625 9
54.96598 7
54.98570 7
55.00542 8
55.02514 9
55.04486 7
55.06458 7
55.08430 4
55.10403 6
55.12374 8
55.14347 9
55.16319 10
55.18291 11
55.20263 11
55.22235 9
55.24207 7
55.26179 8
55.28152 8
55.30124 6
55.32096 5
55.34068 4
55.36040 4
55.38012 5
55.39984 7
55.41957 7
55.43929 8
55.45901 9
55.47873 11
55.49845 13
55.51817 13
55.53789 14
55.55762 14
55.57734 13
55.59706 14
55.61678 12
55.63650 9
55.65622 6
55.67594 5
55.69567 7
55.71539 9
55.73511 8
55.75483 10
55.77455 7
55.79427 7
55.81399 7
55.83372 9
55.85343 9
55.87316 9
55.89288 9
55.91260 10
55.93232 14
55.95204 19
55.97176 19
55.99148 17
56.01121 13
56.03093 8
56.05065 7
56.07037 5
56.09009 7
56.10981 5
56.12953 4
56.14926 4
56.16898 4
56.18870 5
56.20842 7
56.22814 9
56.24786 10
56.26759 12
56.28731 14
56.30703 15
56.32675 14
56.34647 13
56.36619 12
56.38591 12
56.40564 10
56.42536 11
56.44508 11
56.46480 9
56.48452 7
56.50424 4
56.52396 4
56.54369 3
56.56341 3
56.58313 3
56.60285 4
56.62257 6
56.64229 7
56.66201 9
56.68174 13
56.70145 18
56.72118 18
56.74090 18
56.76062 15
56.78034 17
56.80006 19
56.81978 19
56.83950 22
56.85923 32
56.87895 40
56.89867 52
56.91839 56
56.93811 66
56.95783 71
56.97755 73
56.99728 71
57.01700 69
57.03672 63
57.05644 52
57.07616 40
57.09588 31
57.11560 24
57.13533 22
57.15505 23
57.17477 22
57.19449 25
57.21421 25
57.23393 24
57.25365 20
57.27338 17
57.29310 16
57.31282 18
57.33254 16
57.35226 15
57.37198 15
57.39170 18
57.41143 26
57.43114 37
57.45087 53
57.47059 63
57.49031 77
57.51003 94
57.52975 107
57.54947 119
57.56919 125
57.58892 123
57.60864 110
57.62836 91
57.64808 78
57.66780 61
57.68752 42
57.70724 32
57.72697 23
57.74669 18
57.76641 16
57.78613 17
57.80585 18
57.82557 14
57.84529 14
57.86502 13
57.88474 12
57.90446 14
57.92418 11
57.94390 10
57.96362 9
57.98334 7
58.00307 7
58.02279 10
58.04251 9
58.06223 11
58.08195 12
58.10167 14
58.12139 14
58.14112 13
58.16083 13
58.18056 11
58.20028 9
58.22000 9
58.23972 9
58.25944 8
58.27916 6
58.29888 3
58.31861 5
58.33833 9
58.35805 11
58.37777 13
58.39749 14
58.41721 12
58.43693 9
58.45666 6
58.47638 9
58.49610 9
58.51582 8
58.53554 10
58.55526 9
58.57498 10
58.59471 12
58.61443 14
58.63415 13
58.65387 10
58.67359 9
58.69331 7
58.71303 4
58.73276 5
58.75248 5
58.77220 5
58.79192 6
58.81164 7
58.83136 9
58.85108 8
58.87081 9
58.89053 6
58.91025 5
58.92997 7
58.94969 10
58.96941 13
58.98914 16
59.00885 17
59.02858 16
59.04830 12
59.06802 10
59.08774 8
59.10746 5
59.12718 4
59.14690 4
59.16663 4
59.18635 5
59.20607 9
59.22579 10
59.24551 11
59.26523 11
59.28495 11
59.30468 9
59.32440 6
59.34412 6
59.36384 5
59.38356 5
59.40328 6
59.42300 7
59.44273 6
59.46245 7
59.48217 8
59.50189 11
59.52161 11
59.54133 12
59.56105 13
59.58078 13
59.60050 11
59.62022 10
59.63994 10
59.65966 8
59.67938 6
59.69910 4
59.71883 6
59.73854 5
59.75827 3
59.77799 3
59.79771 3
59.81743 5
59.83715 9
59.85687 13
59.87659 15
59.89632 14
59.91604 15
59.93576 14
59.95548 10
59.97520 12
59.99492 11
60.01464 10
60.03437 10
60.05409 9
60.07381 12
60.09353 12
60.11325 10
60.13297 10
60.15269 4
60.17242 3
60.19214 5
60.21186 6
60.23158 9
60.25130 12
60.27102 12
60.29074 13
60.31047 12
60.33018 13
60.34991 12
60.36963 13
60.38935 11
60.40907 10
60.42879 9
60.44852 10
60.46823 10
60.48796 10
60.50768 9
60.52740 10
60.54712 7
60.56684 7
60.58656 7
60.60628 7
60.62601 7
60.64573 10
60.66545 10
60.68517 12
60.70489 11
60.72461 10
60.74433 11
60.76406 14
60.78378 16
60.80350 16
60.82322 15
60.84294 12
60.86266 8
60.88238 6
60.90211 6
60.92183 7
60.94155 9
60.96127 10
60.98099 11
61.00071 8
61.02043 9
61.04016 7
61.05987 7
61.07960 9
61.09932 12
61.11904 12
61.13876 12
61.15848 10
61.17820 8
61.19792 6
61.21765 6
61.23737 5
61.25709 5
61.27681 6
61.29653 9
61.31625 11
61.33597 10
61.35570 11
61.37542 10
61.39514 9
61.41486 8
61.43458 7
61.45430 6
61.47403 6
61.49375 5
61.51347 9
61.53319 14
61.55291 16
61.57263 18
61.59235 16
61.61208 16
61.63180 15
61.65152 12
61.67124 8
61.69096 7
61.71068 3
61.73040 4
61.75013 1
61.76985 4
61.78957 4
61.80929 7
61.82901 10
61.84873 14
61.86845 18
61.88818 16
61.90789 17
61.92762 15
61.94734 11
61.96706 13
61.98678 11
62.00650 10
62.02623 10
62.04594 9
62.06567 11
62.08539 11
62.10511 13
62.12483 16
62.14455 18
62.16427 21
62.18399 22
62.20372 28
62.22344 29
62.24316 33
62.26288 45
62.28260 53
62.30232 62
62.32204 76
62.34177 91
62.36149 114
62.38121 128
62.40093 139
62.42065 148
62.44037 147
62.46009 145
62.47982 140
62.49954 125
62.51926 116
62.53898 99
62.55870 85
62.57842 76
62.59814 66
62.61787 63
62.63758 57
62.65731 50
62.67703 42
62.69675 32
62.71647 27
62.73619 22
62.75591 14
62.77563 14
62.79536 14
62.81508 16
62.83480 15
62.85452 18
62.87424 18
62.89396 20
62.91368 22
62.93341 24
62.95313 25
62.97285 21
62.99257 17
63.01229 15
63.03201 9
63.05173 5
63.07146 3
63.09118 7
63.11090 9
63.13062 14
63.15034 16
63.17006 18
63.18978 16
63.20951 12
63.22923 11
63.24895 6
63.26867 6
63.28839 10
63.30811 10
63.32783 9
63.34756 8
63.36727 8
63.38700 7
63.40672 3
63.42644 9
63.44616 9
63.46588 10
63.48560 10
63.50532 14
63.52505 15
63.54477 14
63.56449 15
63.58421 16
63.60393 14
63.62365 9
63.64337 10
63.66310 13
63.68282 13
63.70254 14
63.72226 14
63.74198 15
63.76170 13
63.78142 11
63.80115 13
63.82087 16
63.84059 16
63.86031 14
63.88003 12
63.89975 13
63.91947 15
63.93920 22
63.95892 27
63.97864 31
63.99836 31
64.01808 27
64.03780 27
64.05752 25
64.07724 25
64.09697 21
64.11669 18
64.13641 15
64.15613 11
64.17585 8
64.19558 10
64.21530 6
64.23502 7
64.25474 7
64.27446 8
64.29418 13
64.31390 15
64.33362 18
64.35334 19
64.37307 15
64.39279 13
64.41251 13
64.43223 11
64.45195 11
64.47168 10
64.49140 9
64.51112 9
64.53083 5
64.55056 4
64.57028 4
64.59000 4
64.60972 5
64.62944 5
64.64917 4
64.66889 5
64.68861 6
64.70833 7
64.72805 13
64.74778 17
64.76749 20
64.78721 19
64.80693 19
64.82666 18
64.84638 16
64.86610 11
64.88582 11
64.90554 7
64.92527 6
64.94499 4
64.96471 9
64.98443 12
65.00415 14
65.02387 11
65.04359 11
65.06331 6
65.08303 8
65.10276 7
65.12248 10
65.14220 14
65.16192 15
65.18164 12
65.20137 11
65.22109 7
65.24081 4
65.26052 3
65.28025 6
65.29997 11
65.31969 12
65.33941 9
65.35913 11
65.37886 9
65.39858 11
65.41830 14
65.43802 18
65.45774 18
65.47747 13
65.49718 3
65.51690 6
65.53662 8
65.55635 13
65.57607 14
65.59579 14
65.61551 12
65.63523 7
65.65496 9
65.67468 18
65.69440 21
65.71412 19
65.73384 14
65.75356 9
65.77328 4
65.79300 0
65.81272 5
65.83245 8
65.85217 8
65.87189 8
65.89161 5
65.91133 8
65.93106 14
65.95078 19
65.97049 27
65.99021 30
66.00994 29
66.02966 26
66.04938 18
66.06910 16
66.08882 14
66.10855 10
66.12827 9
66.14799 7
66.16771 4
66.18743 4
66.20716 5
66.22687 9
66.24659 11
66.26631 15
66.28604 16
66.30576 16
66.32548 15
66.34520 12
66.36492 13
66.38465 13
66.40437 9
66.42409 9
66.44381 5
66.46353 4
66.48325 3
66.50297 2
66.52269 7
66.54241 10
66.56214 11
66.58186 13
66.60158 14
66.62130 19
66.64102 19
66.66075 20
66.68047 19
66.70018 17
66.71991 12
66.73963 8
66.75935 6
66.77907 8
66.79879 6
66.81852 5
66.83824 6
66.85796 7
66.87768 5
66.89740 6
66.91713 8
66.93685 13
66.95656 15
66.97628 18
66.99601 17
67.01573 15
67.03545 11
67.05517 10
67.07489 8
67.09462 11
67.11434 11
67.13406 10
67.15378 7
67.17350 8
67.19322 9
67.21294 8
67.23266 5
67.25238 7
67.27211 10
67.29183 9
67.31155 9
67.33127 13
67.35099 14
67.37072 12
67.39044 8
67.41016 9
67.42987 11
67.4496  10
67.46932 9
67.48904 10
67.50876 8
67.52848 5
67.54821 3
67.56793 4
67.58765 6
67.60737 12
67.62709 15
67.64682 14
67.66654 14
67.68625 13
67.70597 11
67.7257  11
67.74542 13
67.76514 13
67.78486 6
67.80458 4
67.82431 10
67.84403 15
67.86375 13
67.88347 18
67.90319 18
67.92291 14
67.94263 5
67.96235 10
67.98207 14
68.00180 17
68.02152 17
68.04124 19
68.06096 18
68.08068 17
68.10041 12
68.12013 19
68.13985 17
68.15956 18
68.17929 15
68.19901 12
68.21873 13
68.23845 10
68.25817 8
68.27790 12
68.29762 13
68.31734 13
68.33706 14
68.35678 10
68.37651 12
68.39622 13
68.41594 15
68.43566 17
68.45539 18
68.47511 18
68.49483 18
68.51455 9
68.53427 9
68.55400 9
68.57372 9
68.59344 12
68.61316 13
68.63288 17
68.65260 16
68.67232 8
68.69204 7
68.71176 7
68.73149 12
68.75121 15
68.77093 12
68.79065 15
68.81037 14
68.83010 7
68.84982 10
68.86954 12
68.88925 14
68.90898 18
68.92870 18
68.94842 17
68.96814 17
68.98786 12
69.00759 15
69.02731 12
69.04703 8
69.06675 12
69.08647 17
69.10620 15
69.12591 17
69.14563 19
69.16535 21
69.18508 20
69.20480 18
69.22452 19
69.24424 22
69.26396 19
69.28369 14
69.30341 15
69.32313 15
69.34285 13
69.36257 11
69.38229 11
69.40201 12
69.42173 10
69.44146 9
69.46118 18
69.48090 26
69.50062 25
69.52034 30
69.54007 33
69.55979 38
69.57951 41
69.59923 44
69.61895 45
69.63867 46
69.65839 38
69.67811 34
69.69783 29
69.71756 25
69.73728 22
69.75700 19
69.77672 10
69.79644 14
69.81617 14
69.83589 13
69.85560 13
69.87532 14
69.89505 13
69.91477 14
69.93449 14
69.95421 19
69.97393 20
69.99366 16
70.01338 12
70.03310 10
70.05282 8
70.07254 6
70.09227 11
70.11198 12
70.13170 14
70.15142 12
70.17115 10
70.19087 8
70.21059 12
70.23031 11
70.25003 11
70.26976 10
70.28948 14
70.30920 14
70.32892 14
70.34864 15
70.36836 20
70.38808 20
70.40780 14
70.42752 9
70.44725 8
70.46697 5
70.48669 6
70.50641 8
70.52613 11
70.54586 15
70.56558 14
70.58529 10
70.60501 6
70.62474 7
70.64446 12
70.66418 16
70.68390 20
70.70362 25
70.72335 24
70.74307 15
70.76279 9
70.78251 16
70.80223 22
70.82195 28
70.84167 28
70.86139 26
70.88111 19
70.90084 14
70.92056 14
70.94028 22
70.96000 26
70.97972 25
70.99945 21
71.01917 13
71.03889 10
71.05861 7
71.07833 6
71.09805 11
71.11777 14
71.13749 16
71.15721 18
71.17694 21
71.19666 24
71.21638 21
71.23610 23
71.25582 22
71.27555 18
71.29527 18
71.31498 15
71.33470 16
71.35443 14
71.37415 12
71.39387 10
71.41359 8
71.43331 4
71.45304 8
71.47276 11
71.49248 12
71.51220 15
71.53192 18
71.55164 19
71.57136 19
71.59108 19
71.61080 24
71.63053 27
71.65025 31
71.66997 30
71.68969 30
71.70941 34
71.72914 35
71.74886 41
71.76858 53
71.78830 70
71.80802 90
71.82774 98
71.84746 108
71.86718 117
71.88690 116
71.90663 111
71.92635 107
71.94607 101
71.96579 87
71.98551 71
72.00524 61
72.02496 45
72.04467 37
72.0644  29
72.08412 30
72.10384 36
72.12356 35
72.14328 36
72.16301 39
72.18273 34
72.20245 37
72.22217 38
72.24189 44
72.26162 45
72.28133 40
72.30105 32
72.32077 25
72.3405  15
72.36022 11
72.37994 13
72.39966 16
72.41938 14
72.43911 13
72.45883 12
72.47855 8
72.49827 4
72.51799 9
72.53771 15
72.55743 21
72.57715 21
72.59687 19
72.6166  15
72.63632 7
72.65604 3
72.67576 3
72.69548 2
72.71521 4
72.73493 4
72.75465 5
72.77436 2
72.79409 4
72.81381 8
72.83353 13
72.85325 14
72.87297 13
72.8927  15
72.91242 17
72.93214 14
72.95186 13
72.97158 17
72.99131 16
73.01102 14
73.03074 12
73.05046 10
73.07019 9
73.08991 8
73.10963 11
73.12935 13
73.14907 12
73.1688  16
73.18852 14
73.20824 8
73.22796 9
73.24768 13
73.26740 15
73.28712 12
73.30684 14
73.32656 17
73.34629 20
73.36601 20
73.38573 21
73.40545 21
73.42517 18
73.44490 13
73.46462 11
73.48434 10
73.50405 10
73.52378 9
73.54350 8
73.56322 11
73.58294 16
73.60266 18
73.62239 21
73.64211 19
73.66183 15
73.68155 14
73.70127 16
73.72100 17
73.74071 22
73.76043 22
73.78015 23
73.79988 17
73.81960 12
73.83932 19
73.85904 19
73.87876 21
73.89849 27
73.91821 26
73.93793 27
73.95765 22
73.97737 24
73.99709 26
74.01681 25
74.03653 27
74.05625 24
74.07598 20
74.09570 19
74.11542 16
74.13514 17
74.15486 12
74.17459 14
74.19431 12
74.21403 12
74.23374 9
74.25347 15
74.27319 24
74.29291 27
74.31263 24
74.33235 21
74.35208 18
74.37180 12
74.39152 4
74.41124 8
74.43096 11
74.45069 14
74.47040 14
74.49012 14
74.50985 13
74.52957 14
74.54929 14
74.56901 14
74.58873 15
74.60845 15
74.62818 14
74.64790 9
74.66762 4
74.68734 6
74.70706 7
74.72678 9
74.74650 11
74.76622 12
74.78595 12
74.80567 10
74.82539 10
74.84511 13
74.86483 18
74.88456 20
74.90428 22
74.92400 19
74.94372 17
74.96344 14
74.98316 14
75.00288 18
75.02260 20
75.04232 25
75.06205 28
75.08177 25
75.10149 22
75.12121 22
75.14093 22
75.16066 24
75.18038 21
75.20009 18
75.21981 13
75.23954 10
75.25926 9
75.27898 12
75.29870 13
75.31842 14
75.33815 10
75.35787 6
75.37759 5
75.39731 10
75.41703 15
75.43675 24
75.45647 26
75.47619 25
75.49591 18
75.51564 11
75.53536 9
75.55508 10
75.57480 12
75.59452 17
75.61425 15
75.63397 11
75.65369 8
75.67340 3
75.69313 8
75.71285 11
75.73257 16
75.75229 21
75.77201 22
75.79174 16
75.81146 12
75.83118 9
75.85090 8
75.87062 9
75.89035 10
75.91007 17
75.92978 21
75.94950 18
75.96923 15
75.98895 12
76.00867 7
76.02839 8
76.04811 6
76.06784 10
76.08756 14
76.10728 14
76.12700 11
76.14672 7
76.16644 8
76.18616 10
76.20588 11
76.22560 10
76.24533 10
76.26505 11
76.28477 10
76.30449 10
76.32421 13
76.34394 17
76.36366 16
76.38338 12
76.40309 8
76.42282 7
76.44254 3
76.46226 3
76.48198 3
76.50170 4
76.52143 5
76.54115 7
76.56087 10
76.58059 9
76.60031 9
76.62004 10
76.63976 12
76.65947 9
76.67919 8
76.69892 6
76.71864 11
76.73836 14
76.75808 15
76.77780 16
76.79753 18
76.81725 17
76.83697 13
76.85669 9
76.87641 14
76.89613 16
76.91585 15
76.93557 13
76.95529 9
76.97502 8
76.99474 5
77.01446 3
77.03418 6
77.05390 7
77.07363 7
77.09335 5
77.11307 5
77.13279 5
77.15251 6
77.17223 4
77.19195 5
77.21167 3
77.2314  3
77.25112 5
77.27084 7
77.29056 9
77.31028 10
77.33000 11
77.34973 11
77.36945 9
77.38916 8
77.40889 8
77.42861 3
77.44833 6
77.46805 10
77.48777 16
77.5075  21
77.52722 24
77.54694 20
77.56666 15
77.58638 7
77.60611 8
77.62582 12
77.64554 18
77.66526 24
77.68499 27
77.70471 25
77.72443 19
77.74415 12
77.76387 6
77.7836  9
77.80332 11
77.82304 13
77.84276 13
77.86248 13
77.88220 8
77.90192 4
77.92164 0
77.94136 4
77.96109 4
77.98081 9
78.00053 13
78.02025 15
78.03997 13
78.0597  13
78.07942 10
78.09913 11
78.11885 8
78.13858 8
78.15830 7
78.17802 5
78.19774 3
78.21746 3
78.23719 2
78.25691 3
78.27663 5
78.29635 8
78.31607 9
78.3358  9
78.35551 7
78.37523 7
78.39495 5
78.41468 7
78.43440 11
78.45412 14
78.47384 14
78.49356 12
78.51329 5
78.53301 5
78.55273 4
78.57245 6
78.59217 7
78.61189 8
78.63161 6
78.65133 1
78.67105 0
78.69078 3
78.71050 5
78.73022 7
78.74994 12
78.76966 16
78.78939 15
78.80911 14
78.82882 15
78.84854 9
78.86827 7
78.88799 8
78.90771 11
78.92743 15
78.94715 18
78.96688 20
78.98660 16
79.00632 12
79.02604 11
79.04576 11
79.06549 10
79.08520 16
79.10492 17
79.12464 17
79.14437 17
79.16409 14
79.18381 12
79.20353 12
79.22325 13
79.24298 19
79.26270 19
79.28242 19
79.30214 17
79.32186 13
79.34158 12
79.36130 8
79.38102 10
79.40074 10
79.42047 12
79.44019 9
79.45991 9
79.47963 8
79.49935 6
79.51908 6
79.53880 9
79.55851 8
79.57823 9
79.59796 4
79.61768 5
79.63740 6
79.65712 5
79.67684 8
79.69657 11
79.71629 12
79.73601 10
79.75573 5
79.77545 3
79.79518 2
79.81489 2
79.83461 3
79.85434 7
79.87406 8
79.89378 10
79.91350 11
79.93322 9
79.95295 7
79.97267 6
79.99239 4
80.01211 2
80.03183 0
80.05155 2
80.07127 3
80.09099 3
80.11071 3
80.13044 4
80.15016 1
80.16988 3
80.18960 6
80.20932 9
80.22905 9
80.24877 8
80.26849 7
80.28820 4
80.30793 0
80.32765 2
80.34737 5
80.36709 5
80.38681 6
80.40654 8
80.42626 9
80.44598 9
80.46570 10
80.48542 9
80.50515 9
80.52486 11
80.54458 16
80.56430 18
80.58403 16
80.60375 19
80.62347 18
80.64319 17
80.66291 18
80.68264 22
80.70236 27
80.72208 26
80.74180 25
80.76152 29
80.78124 29
80.80096 29
80.82068 25
80.84040 22
80.86013 18
80.87985 14
80.89957 15
80.91929 13
80.93901 13
80.95874 10
80.97846 8
80.99818 4
81.01789 0
81.03762 0
81.05734 6
81.07706 8
81.09678 11
81.11650 11
81.13623 10
81.15595 6
81.17567 2
81.19539 0
81.21511 1
81.23484 1
81.25455 5
81.27427 8
81.29399 10
81.31372 10
81.33344 8
81.35316 8
81.37288 7
81.39260 8
81.41233 11
81.43205 11
81.45177 6
81.47149 6
81.49121 6
81.51093 5
81.53065 7
81.55037 12
81.57009 16
81.58982 16
81.60954 13
81.62926 14
81.64898 14
81.66870 9
81.68843 7
81.70815 9
81.72787 9
81.74758 11
81.76731 9
81.78703 9
81.80675 10
81.82647 9
81.84619 9
81.86592 12
81.88564 10
81.90536 13
81.92508 12
81.94480 10
81.96453 8
81.98424 9
82.00396 9
82.02368 10
82.04341 10
82.06313 16
82.08285 16
82.10257 13
82.12229 11
82.14202 14
82.16174 12
82.18146 16
82.20118 16
82.22090 18
82.24062 17
82.26034 15
82.28006 10
82.29978 9
82.31951 6
82.33923 6
82.35895 4
82.37867 5
82.39839 6
82.41812 6
82.43784 7
82.45756 11
82.47728 9
82.49700 12
82.51672 12
82.53644 10
82.55616 10
82.57589 9
82.59561 12
82.61533 16
82.63505 14
82.65477 23
82.6745  27
82.69422 28
82.71393 35
82.73365 41
82.75338 45
82.77310 49
82.79282 46
82.81254 50
82.83226 49
82.85199 50
82.87171 53
82.89143 57
82.91115 53
82.93087 53
82.95059 48
82.97031 37
82.99003 28
83.00975 24
83.02948 22
83.04920 23
83.06892 20
83.08864 24
83.10836 28
83.12809 23
83.14781 19
83.16753 16
83.18725 12
83.20697 9
83.22669 6
83.24641 8
83.26613 9
83.28585 8
83.30558 10
83.32530 10
83.34502 9
83.36474 6
83.38446 8
83.40419 11
83.42391 15
83.44362 17
83.46334 22
83.48307 20
83.50279 15
83.52251 7
83.54223 5
83.56195 2
83.58168 5
83.60140 5
83.62112 8
83.64084 7
83.66056 6
83.68028 6
83.70000 6
83.71972 4
83.73944 3
83.75917 3
83.77889 1
83.79861 1
83.81833 4
83.83805 6
83.85778 11
83.87750 16
83.89722 19
83.91694 21
83.93666 24
83.95638 26
83.97610 24
83.99582 18
84.01554 13
84.03527 11
84.05499 8
84.07471 6
84.09443 9
84.11415 11
84.13388 11
84.15360 11
84.17331 11
84.19303 12
84.21276 11
84.23248 10
84.25220 11
84.27192 9
84.29164 9
84.31137 10
84.33109 13
84.35081 15
84.37053 17
84.39025 19
84.40997 22
84.42969 19
84.44941 20
84.46913 16
84.48886 14
84.50858 12
84.52830 10
84.54802 10
84.56774 11
84.58747 15
84.60719 16
84.62691 16
84.64663 14
84.66635 11
84.68607 13
84.70579 14
84.72551 17
84.74523 23
84.76496 24
84.78468 31
84.80440 37
84.82412 36
84.84384 39
84.86357 32
84.88329 32
84.90300 31
84.92272 28
84.94245 27
84.96217 31
84.98189 27
85.00161 23
85.02133 16
85.04106 13
85.06078 10
85.08050 8
85.10022 10
85.11994 12
85.13966 11
85.15938 10
85.17910 10
85.19883 5
85.21855 3
85.23827 7
85.25799 11
85.27771 12
85.29744 9
85.31716 11
85.33688 14
85.35660 14
85.37632 17
85.39604 22
85.41576 23
85.43548 20
85.45520 19
85.47493 21
85.49465 22
85.51437 20
85.53409 21
85.55381 24
85.57354 20
85.59326 15
85.61298 13
85.63269 10
85.65242 7
85.67214 3
85.69186 5
85.71158 6
85.73130 3
85.75103 4
85.77075 9
85.79047 15
85.81019 19
85.82991 23
85.84964 27
85.86935 25
85.88907 21
85.90879 15
85.92852 17
85.94824 18
85.96796 16
85.98768 17
86.00740 18
86.02713 19
86.04685 18
86.06657 14
86.08629 14
86.10601 12
86.12573 5
86.14545 5
86.16517 7
86.18489 16
86.20462 21
86.22434 25
86.24406 27
86.26378 24
86.28350 21
86.30323 15
86.32295 13
86.34267 14
86.36238 9
86.38211 7
86.40183 11
86.42155 12
86.44127 17
86.46099 15
86.48072 16
86.50044 13
86.52016 12
86.53988 12
86.55960 17
86.57933 19
86.59904 17
86.61876 14
86.63848 10
86.65821 8
86.67793 10
86.69765 7
86.71737 12
86.73709 19
86.75682 24
86.77654 33
86.79626 37
86.81598 38
86.83570 34
86.85542 27
86.87514 23
86.89486 22
86.91458 20
86.93431 20
86.95403 16
86.97375 13
86.99347 11
87.01319 12
87.03292 10
87.05264 8
87.07236 5
87.09207 6
87.11180 5
87.13152 6
87.15124 5
87.17096 8
87.19068 7
87.21041 4
87.23013 6
87.24985 14
87.26957 18
87.28929 23
87.30902 23
87.32873 25
87.34845 27
87.36817 22
87.38790 22
87.40762 23
87.42734 24
87.44706 23
87.46678 19
87.48651 21
87.50623 25
87.52595 23
87.54567 19
87.56539 18
87.58511 20
87.60483 19
87.62455 13
87.64427 16
87.66400 14
87.68372 13
87.70344 12
87.72316 13
87.74288 14
87.76261 17
87.78233 15
87.80204 16
87.82177 12
87.84149 11
87.86121 16
87.88093 16
87.90065 21
87.92038 23
87.94010 23
87.95982 21
87.97954 14
87.99926 12
88.01899 17
88.03871 20
88.05842 26
88.07814 25
88.09787 28
88.11759 28
88.13731 22
88.15703 21
88.17675 18
88.19648 16
88.21620 13
88.23592 17
88.25564 25
88.27536 30
88.29508 31
88.31480 26
88.33452 15
88.35424 9
88.37397 4
88.39369 8
88.41341 12
88.43313 19
88.45285 25
88.47258 22
88.49230 19
88.51202 17
88.53173 15
88.55146 17
88.57118 20
88.59090 25
88.61062 28
88.63034 30
88.65007 32
88.66979 27
88.68951 24
88.70923 21
88.72895 18
88.74868 18
88.76840 20
88.78811 25
88.80783 26
88.82756 24
88.84728 23
88.86700 15
88.88672 11
88.90644 8
88.92617 6
88.94589 5
88.96561 7
88.98533 8
89.00505 10
89.02477 8
89.04449 7
89.06421 4
89.08393 3
89.10366 3
89.12338 3
89.14310 6
89.16282 8
89.18254 11
89.20227 14
89.22199 18
89.24171 18
89.26142 16
89.28115 13
89.30087 11
89.32059 14
89.34031 12
89.36003 13
89.37976 15
89.39948 19
89.41920 21
89.43892 20
89.45864 24
89.47837 29
89.49809 24
89.51780 24
89.53752 27
89.55725 34
89.57697 39
89.59669 41
89.61641 43
89.63613 45
89.65586 39
89.67558 36
89.69530 35
89.71502 35
89.73474 36
89.75446 33
89.77418 31
89.79390 36
89.81362 32
89.83335 28
89.85307 25
89.87279 23
89.89251 19
89.91223 16
89.93196 19
89.95168 18
89.97140 18
89.99111 18
